SetA.run3,,
Time (sec),Abs,
0.25,0.7181807756,
0.75,0.7128856778,
1.25,0.7070782781,
1.75,0.7019364834,
2.25,0.6959852576,
2.75,0.6906996965,
3.25,0.6854079962,
3.75,0.6797460914,
4.25,0.6743029356,
4.75,0.6692388058,
5.25,0.6641049385,
5.75,0.6590160131,
6.25,0.6534349322,
6.75,0.6483837366,
7.25,0.6427716613,
7.75,0.6380001307,
8.25,0.6323102713,
8.75,0.6277939081,
9.25,0.6220814586,
9.75,0.6170870066,
10.25,0.6117637753,
10.75,0.6070803404,
11.25,0.6016008854,
11.75,0.5964721441,
12.25,0.5917866826,
12.75,0.5867517591,
13.25,0.5814819336,
13.75,0.5767149925,
14.25,0.5717345476,
14.75,0.5666571259,
15.25,0.5615874529,
15.75,0.5569027066,
16.25,0.5519282818,
16.75,0.5473454595,
17.25,0.5422906876,
17.75,0.537373364,
18.25,0.5327839255,
18.75,0.5281487703,
19.25,0.5230218768,
19.75,0.5184850097,
20.25,0.5135940313,
20.75,0.5092748404,
21.25,0.5042021871,
21.75,0.4999368489,
22.25,0.4951792657,
22.75,0.4905978441,
23.25,0.4863349795,
23.75,0.482337147,
24.25,0.477445662,
24.75,0.4726990163,
25.25,0.4678291082,
25.75,0.4635753334,
26.25,0.4593657851,
26.75,0.454893291,
27.25,0.450334549,
27.75,0.4461393654,
28.25,0.4417980909,
28.75,0.4376439452,
29.25,0.4332478046,
29.75,0.4289218485,
30.25,0.424847424,
30.75,0.4205911458,
31.25,0.4166056216,
31.75,0.4123550057,
32.25,0.4082907438,
32.75,0.4045971632,
33.25,0.4006082118,
33.75,0.3963067234,
34.25,0.3920758665,
34.75,0.3883049786,
35.25,0.3844360113,
35.75,0.3803141117,
36.25,0.37651968,
36.75,0.3727104366,
37.25,0.3688857853,
37.75,0.3650225103,
38.25,0.3616354465,
38.75,0.3579153717,
39.25,0.3540605605,
39.75,0.3503439128,
40.25,0.3467848599,
40.75,0.343349874,
41.25,0.3395301402,
41.75,0.3358631134,
42.25,0.3325710595,
42.75,0.3288786411,
43.25,0.3257318735,
43.75,0.3220998645,
44.25,0.3188922405,
44.75,0.3152053058,
45.25,0.3121221662,
45.75,0.3084925115,
46.25,0.3055327535,
46.75,0.302438736,
47.25,0.2988533676,
47.75,0.2957768738,
48.25,0.2926695347,
48.75,0.2895509303,
49.25,0.2863224149,
49.75,0.2832255065,
50.25,0.2803935111,
50.75,0.2775193751,
51.25,0.2743382454,
51.75,0.2714259923,
52.25,0.2684571743,
52.75,0.2656264305,
53.25,0.2625688612,
53.75,0.2598804235,
54.25,0.257349968,
54.75,0.2544780672,
55.25,0.2516898513,
55.75,0.2489800602,
56.25,0.2463064045,
56.75,0.2436318249,
57.25,0.2410421073,
57.75,0.238479048,
58.25,0.2361274064,
58.75,0.2333693951,
59.25,0.2307377607,
59.75,0.2283835113,
60.25,0.2260317504,
60.75,0.223452732,
61.25,0.2212077975,
61.75,0.2186995894,
62.25,0.2163550705,
62.75,0.21409747,
63.25,0.2119386345,
63.75,0.2095557451,
64.25,0.2074506432,
64.75,0.2051550746,
65.25,0.2030000538,
65.75,0.2007827759,
66.25,0.1988679022,
66.75,0.1975145936,
67.25,0.1976670921,
67.75,0.1973735541,
68.25,0.1961230636,
68.75,0.1933514625,
69.25,0.1881593019,
69.75,0.1847033352,
70.25,0.1828592122,
70.75,0.1807910055,
71.25,0.1789134443,
71.75,0.1770064831,
72.25,0.1752503216,
72.75,0.173532322,
73.25,0.1716208458,
73.75,0.1698632538,
74.25,0.1680739522,
74.75,0.1665176004,
75.25,0.1647981405,
75.75,0.1632487625,
76.25,0.1614907086,
76.75,0.1598588675,
77.25,0.1581575423,
77.75,0.1566654593,
78.25,0.1551796347,
78.75,0.1536412984,
79.25,0.1521627903,
79.75,0.150684759,
80.25,0.1492587477,
80.75,0.1477189511,
81.25,0.146362856,
81.75,0.1447813958,
82.25,0.1433795094,
82.75,0.1422157288,
83.25,0.1408525854,
83.75,0.1394627243,
84.25,0.1380915195,
84.75,0.1368830204,
85.25,0.135786429,
85.75,0.1345740855,
86.25,0.1332894862,
86.75,0.1322979629,
87.25,0.1310013533,
87.75,0.1295776218,
88.25,0.1282944083,
88.75,0.1270036101,
89.25,0.1257695705,
89.75,0.1246368363,
90.25,0.1236578226,
90.75,0.1223945022,
91.25,0.1214392483,
91.75,0.1202483177,
92.25,0.1194241866,
92.75,0.1181259081,
93.25,0.1172163337,
93.75,0.1163381636,
94.25,0.1154863238,
94.75,0.1142462492,
95.25,0.1133125275,
95.75,0.1122050434,
96.25,0.1114487201,
96.75,0.110545896,
97.25,0.1095245406,
97.75,0.1086632684,
98.25,0.10769061,
98.75,0.1069095507,
99.25,0.10601376,
99.75,0.1051365957,
100.25,0.1044993028,
100.75,0.1036555246,
101.25,0.1027666107,
101.75,0.1020180434,
102.25,0.1011815518,
102.75,0.1004558057,
103.25,0.09961657971,
103.75,0.0986969322,
104.25,0.0983427316,
104.75,0.0973874107,
105.25,0.09666525573,
105.75,0.09612746537,
106.25,0.09527215362,
106.75,0.09464166313,
107.25,0.09378834069,
107.75,0.09337767959,
108.25,0.09272208065,
108.75,0.09192596376,
109.25,0.09143812954,
109.75,0.09077201784,
110.25,0.09009762853,
110.75,0.08942253143,
111.25,0.08867224306,
111.75,0.08826458454,
112.25,0.08767813444,
112.75,0.08703894913,
113.25,0.08646739274,
113.75,0.08599407226,
114.25,0.08540055901,
114.75,0.08484883606,
115.25,0.08430849761,
115.75,0.08389027417,
116.25,0.08332622051,
116.75,0.08285493404,
117.25,0.08238258958,
117.75,0.08186946809,
118.25,0.0812785998,
118.75,0.08088583499,
119.25,0.08032143116,
119.75,0.07974756509,
120.25,0.0794620961,
120.75,0.0789046362,
121.25,0.07840642333,
121.75,0.07793623209,
122.25,0.07755497843,
122.75,0.07717020065,
123.25,0.07650952041,
123.75,0.07616665959,
124.25,0.07603952289,
124.75,0.0756277293,
125.25,0.07496055961,
125.75,0.07458735257,
126.25,0.07433686405,
126.75,0.0738158226,
127.25,0.07337168604,
127.75,0.07318659872,
128.25,0.07287763804,
128.75,0.0722541064,
129.25,0.07196111977,
129.75,0.07172071934,
130.25,0.07120765001,
130.75,0.07099854201,
131.25,0.07058411092,
131.75,0.07037153095,
132.25,0.07005643845,
132.75,0.06960816681,
133.25,0.06933080405,
133.75,0.06909567863,
134.25,0.06890372932,
134.75,0.06851950288,
135.25,0.06802894175,
135.75,0.06785591692,
136.25,0.06763105839,
136.75,0.06711566448,
137.25,0.06690012664,
137.75,0.06671687216,
138.25,0.06642948836,
138.75,0.06614709646,
139.25,0.06557086855,
139.75,0.06557574123,
140.25,0.06530015916,
140.75,0.06513092667,
141.25,0.06475423276,
141.75,0.06459797919,
142.25,0.0643587932,
142.75,0.06420451403,
143.25,0.06391905993,
143.75,0.06354119629,
144.25,0.06329795718,
144.75,0.06314925849,
145.25,0.06276655942,
145.75,0.06258703768,
146.25,0.06240412965,
146.75,0.06226709485,
147.25,0.06194003671,
147.75,0.06180655211,
148.25,0.06164422631,
148.75,0.06133743376,
149.25,0.06113972887,
149.75,0.06088097021,
150.25,0.06073220819,
150.75,0.06065272912,
151.25,0.06028985605,
151.75,0.06020198017,
152.25,0.06015446782,
152.75,0.05986978859,
153.25,0.05959611014,
153.75,0.05932155997,
154.25,0.05937699601,
154.75,0.0591416806,
155.25,0.05892252922,
155.75,0.05891153216,
156.25,0.05879619345,
156.75,0.05846403912,
157.25,0.05840780213,
157.75,0.0582649447,
158.25,0.05803659186,
158.75,0.05779114738,
159.25,0.05765000358,
159.75,0.0575149022,
160.25,0.05731355399,
160.75,0.05743015558,
161.25,0.05704856291,
161.75,0.05681772158,
162.25,0.0567124337,
162.75,0.05664421245,
163.25,0.05658682436,
163.75,0.0563313812,
164.25,0.05612539873,
164.75,0.05612875894,
165.25,0.05592728779,
165.75,0.05583089963,
166.25,0.05575545877,
166.75,0.05567850173,
167.25,0.05556501448,
167.75,0.05529288575,
168.25,0.05529250577,
168.75,0.05509080365,
169.25,0.05501305312,
169.75,0.05479315668,
170.25,0.05498082191,
170.75,0.05472097918,
171.25,0.05439034104,
171.75,0.05460888892,
172.25,0.0544065088,
172.75,0.05439996719,
173.25,0.05413850397,
173.75,0.05406186357,
174.25,0.05399056897,
174.75,0.05385361239,
175.25,0.05394563451,
175.75,0.05361957103,
176.25,0.05374470353,
176.75,0.05347025767,
177.25,0.05342607945,
177.75,0.05324804038,
178.25,0.05342324078,
178.75,0.05304544419,
179.25,0.05298814923,
179.75,0.05290305242,
180.25,0.05289240927,
180.75,0.05283189192,
181.25,0.05277366191,
181.75,0.05256646499,
182.25,0.052697815,
182.75,0.05237881839,
183.25,0.05230017751,
183.75,0.05237878859,
184.25,0.0523352176,
184.75,0.05211798474,
185.25,0.05204271898,
185.75,0.05199962109,
186.25,0.05200245231,
186.75,0.05190637708,
187.25,0.05181767419,
187.75,0.05163740367,
188.25,0.051593557,
188.75,0.05149684474,
189.25,0.0515492782,
189.75,0.05148894712,
190.25,0.05138197169,
190.75,0.05138299242,
191.25,0.05134735629,
191.75,0.05114078149,
192.25,0.05109768733,
192.75,0.05113941431,
193.25,0.05105194449,
193.75,0.05094851181,
194.25,0.0509816967,
194.75,0.05083919689,
195.25,0.05085394904,
195.75,0.05073400959,
196.25,0.05068065599,
196.75,0.05071492493,
197.25,0.05063245445,
197.75,0.0504736118,
198.25,0.05052339286,
198.75,0.05052816123,
199.25,0.05035987869,
199.75,0.05027494952,
200.25,0.05021290481,
200.75,0.05036825314,
201.25,0.05026189983,
201.75,0.05014380813,
202.25,0.05013424903,
202.75,0.05016289651,
203.25,0.04996661469,
203.75,0.04987778142,
204.25,0.04995090142,
204.75,0.05004465953,
205.25,0.04983312637,
205.75,0.04961752146,
206.25,0.04968914762,
206.75,0.04981849343,
207.25,0.04952612147,
207.75,0.04957355931,
208.25,0.04966079071,
208.75,0.04967457801,
209.25,0.04943308607,
209.75,0.0493096225,
210.25,0.04941733554,
210.75,0.04940857738,
211.25,0.04931446537,
211.75,0.04922846332,
212.25,0.04931919277,
212.75,0.04943024367,
213.25,0.04930176586,
213.75,0.04923696071,
214.25,0.04921973869,
214.75,0.04902883619,
215.25,0.04904442653,
215.75,0.04892797023,
216.25,0.04901225865,
216.75,0.04900452122,
217.25,0.04885991663,
217.75,0.04884569347,
218.25,0.04898157343,
218.75,0.04886035249,
219.25,0.0489157699,
219.75,0.04878364876,
220.25,0.04863740876,
220.75,0.04881015047,
221.25,0.04875280336,
221.75,0.04869477078,
222.25,0.04871379584,
222.75,0.04856868088,
223.25,0.04842728749,
223.75,0.04856219515,
224.25,0.04859615117,
224.75,0.04856430739,
225.25,0.04838885739,
225.75,0.04839458689,
226.25,0.04859922081,
226.75,0.04839232937,
227.25,0.04839881137,
227.75,0.04844198748,
228.25,0.04835801199,
228.75,0.04829629883,
229.25,0.0483028926,
229.75,0.04832930863,
230.25,0.04820109531,
230.75,0.04820737243,
231.25,0.04824899882,
231.75,0.0482099168,
232.25,0.04826678708,
232.75,0.04819305614,
233.25,0.04823505506,
233.75,0.04815912992,
234.25,0.04821237549,
234.75,0.04818993062,
235.25,0.04819178209,
235.75,0.04813520983,
236.25,0.04809648916,
236.75,0.04804016277,
237.25,0.04801373556,
237.75,0.04799971357,
238.25,0.04805823416,
238.75,0.04800974578,
239.25,0.0478816852,
239.75,0.04784275591,
240.25,0.04785058647,
240.75,0.04796114564,
241.25,0.04761395231,
241.75,0.04783544317,
242.25,0.04791454971,
242.75,0.04787125066,
243.25,0.047871802,
243.75,0.04782177135,
244.25,0.04764959589,
244.75,0.04777397588,
245.25,0.04788576066,
245.75,0.04776845872,
246.25,0.04755263031,
246.75,0.04769590497,
247.25,0.04780345038,
247.75,0.0476994887,
248.25,0.04777527601,
248.75,0.04770827293,
249.25,0.0475432463,
249.75,0.04760531336,
250.25,0.04767522216,
250.75,0.04766326025,
251.25,0.04751453921,
251.75,0.04761481658,
252.25,0.04753007367,
252.75,0.0476398021,
253.25,0.04745054618,
253.75,0.04750160128,
254.25,0.04754133895,
254.75,0.04745046049,
255.25,0.04741093516,
255.75,0.04758495092,
256.25,0.04739058018,
256.75,0.04755820706,
257.25,0.04723222554,
257.75,0.04746426269,
258.25,0.04735969007,
258.75,0.04723231122,
259.25,0.04740945995,
259.75,0.04728380218,
260.25,0.04731520638,
260.75,0.04747093469,
261.25,0.04729216918,
261.75,0.04734764993,
262.25,0.04746611044,
262.75,0.04741038382,
263.25,0.04728486761,
263.75,0.04740212858,
264.25,0.04749215767,
264.75,0.04728810117,
265.25,0.04740683362,
265.75,0.04724962637,
266.25,0.0472381413,
266.75,0.0471702069,
267.25,0.04718201235,
267.75,0.04729745165,
268.25,0.04727843031,
268.75,0.04728377238,
269.25,0.04715858027,
269.75,0.0472722277,
270.25,0.04732686654,
270.75,0.0471999906,
271.25,0.04735749587,
271.75,0.04719199613,
272.25,0.04722584784,
272.75,0.04711030796,
273.25,0.04706319422,
273.75,0.04724815488,
274.25,0.04731624573,
274.75,0.04722654074,
275.25,0.04708676413,
275.75,0.04720452055,
276.25,0.0472105816,
276.75,0.04710863531,
277.25,0.04708065093,
277.75,0.04719366878,
278.25,0.0472041741,
278.75,0.04706302285,
279.25,0.04706102982,
279.75,0.0471002683,
280.25,0.04711365327,
280.75,0.04713691026,
281.25,0.04712034762,
281.75,0.04688615724,
282.25,0.04701637477,
282.75,0.04707713053,
283.25,0.0470571667,
283.75,0.0471204333,
284.25,0.04698196426,
284.75,0.0470389612,
285.25,0.04712698609,
285.75,0.04697884992,
286.25,0.046825286,
286.75,0.04703593254,
287.25,0.04690077901,
287.75,0.04701308906,
288.25,0.04707008973,
288.75,0.04684235528,
289.25,0.04712135717,
289.75,0.04705208912,
290.25,0.04709461331,
290.75,0.04698432982,
291.25,0.04699863493,
291.75,0.04700737819,
292.25,0.04706455022,
292.75,0.04703330994,
293.25,0.04701871425,
293.75,0.04683180153,
294.25,0.04700342566,
294.75,0.04701871425,
295.25,0.04677572474,
295.75,0.04678102955,
296.25,0.04697931185,
296.75,0.04681167752,
297.25,0.04701796174,
297.75,0.04691678286,
298.25,0.04701054841,
298.75,0.0468756333,
299.25,0.04689054191,
299.75,0.04700008035,
300.25,0.04685686156,
300.75,0.04710205644,
301.25,0.04699762538,
301.75,0.04682548717,
302.25,0.04689377174,
302.75,0.04699641466,
303.25,0.04706426337,
303.75,0.04702687636,
304.25,0.04693178087,
304.75,0.04701095447,
305.25,0.04689535499,
305.75,0.04692656174,
306.25,0.04668198153,
306.75,0.0469638519,
307.25,0.04659554735,
307.75,0.046839647,
308.25,0.04684593156,
308.75,0.04685037211,
309.25,0.04686311632,
309.75,0.04673207924,
310.25,0.04687543213,
310.75,0.04678039625,
311.25,0.04690161347,
311.75,0.04696546495,
312.25,0.0469288677,
312.75,0.04681447521,
313.25,0.04665682092,
313.75,0.0468987599,
314.25,0.04687736183,
314.75,0.04664165899,
315.25,0.04677284136,
315.75,0.04685357213,
316.25,0.04683895409,
316.75,0.04691514,
317.25,0.04673761502,
317.75,0.04680905491,
318.25,0.04676670209,
318.75,0.04673112929,
319.25,0.04673118517,
319.75,0.04690513387,
320.25,0.04683973268,
320.75,0.04675459489,
321.25,0.04649098217,
321.75,0.04661237821,
322.25,0.04677537829,
322.75,0.04673386738,
323.25,0.04672864825,
323.75,0.04687234387,
324.25,0.04668973386,
324.75,0.04671515897,
325.25,0.0467585437,
325.75,0.04662471265,
326.25,0.0467524305,
326.75,0.04679365829,
327.25,0.04681571573,
327.75,0.04681951925,
328.25,0.04686432704,
328.75,0.0466949828,
329.25,0.04677814618,
329.75,0.04673242569,
330.25,0.0466177091,
330.75,0.0467739366,
331.25,0.0468198359,
331.75,0.04658577964,
332.25,0.046868857,
332.75,0.04669610411,
333.25,0.04675130919,
333.75,0.04673438519,
334.25,0.04685919732,
334.75,0.0468294099,
335.25,0.04675401747,
335.75,0.0467001684,
336.25,0.04673490301,
336.75,0.04665941373,
337.25,0.04682260379,
337.75,0.04679674283,
338.25,0.0469446145,
338.75,0.04662477225,
339.25,0.04676995799,
339.75,0.04659675807,
340.25,0.04677918553,
340.75,0.04671509936,
341.25,0.04669132084,
341.75,0.04665938392,
342.25,0.04663041979,
342.75,0.04673072323,
343.25,0.0466157496,
343.75,0.04658860341,
344.25,0.04672008753,
344.75,0.04669685662,
345.25,0.04660079256,
345.75,0.04666736722,
346.25,0.04672810063,
346.75,0.04671631008,
347.25,0.046680253,
347.75,0.04675560445,
348.25,0.04677056521,
348.75,0.04669212922,
349.25,0.04677846283,
349.75,0.04668267444,
350.25,0.04681998119,
350.75,0.04666151851,
351.25,0.04664967209,
351.75,0.04692214727,
352.25,0.04672334716,
352.75,0.04676995799,
353.25,0.04668927565,
353.75,0.04668904468,
354.25,0.04673280194,
354.75,0.04668137804,
355.25,0.04689129069,
355.75,0.046654284,
356.25,0.04671749473,
356.75,0.04670717567,
357.25,0.04676774144,
357.75,0.04667662084,
358.25,0.04668310657,
358.75,0.0466555208,
359.25,0.0465920344,
359.75,0.04667806253,
360.25,0.04661091045,
360.75,0.04683978856,
361.25,0.04664102569,
361.75,0.04671755061,
362.25,0.04665486142,
362.75,0.04686208069,
363.25,0.04664160311,

SetA.run3,
SetA.run3
Collection Time: 2023-01-24 16:24:42
Operator Name  :
Kinetics Version 5.0.0.999
Parameter List :
Instrument  Cary 60
Instrument version  2.00
Wavelength (nm)  665.0
Ordinate mode  Abs
Ave Time (sec)  0.5005
Cycle Time(sec)  0.00
Stop Time(sec)  600.00
Method Log     :
Method Name    : C:\Users\chemlab\Desktop\CHEM432Fall2022_SarahJames+KnowltonKershner\Phosphatase Kinetics\Week 2\10mM Inhibitor\Excel\KSD.Meth
Date/Time stamp: 2023-01-24 15:55:46
Method Modifications:
Read WL1 Changed: 2023-01-24 15:52:55, Old:  500.0, New:  665.0
Stop Time 1 Changed: 2023-01-24 15:52:55, Old:     1.00, New:     3.00
Saved as C:\Users\chemlab\Desktop\CHEM432Fall2022_SarahJames+KnowltonKershner\Phosphatase Kinetics\Week 2\10mM Inhibitor\Excel\KSD.MethSaved as C:\Users\chemlab\Desktop\CHEM432Fall2022_SarahJames+KnowltonKershner\Phosphatase Kinetics\Week 2\10mM Inhibitor\Excel\KSD1.BKNSaved as C:\Users\chemlab\Desktop\CHEM432Fall2022_SarahJames+KnowltonKershner\Phosphatase Kinetics\Week 2\10mM Inhibitor\Excel\KSD1.BKNUVVIS SAT Changed: 2023-01-24 16:02:47, Old:0.1000, New:0.5000
Common SAT Changed: 2023-01-24 16:02:47, Old:0.1000, New:0.5000
Stop Time 1 Changed: 2023-01-24 16:02:47, Old:     3.00, New:   600.00
Calc Stop 1 Changed: 2023-01-24 16:02:47, Old:    10.00, New:   600.00
X mode Changed: 2023-01-24 16:02:47, Old:min, New:sec
Saved as C:\Users\chemlab\Desktop\CHEM432Fall2022_SarahJames+KnowltonKershner\Phosphatase Kinetics\Week 2\10mM Inhibitor\Excel\junk.BKNSaved as C:\Users\chemlab\Desktop\CHEM432Fall2022_SarahJames+KnowltonKershner\Phosphatase Kinetics\Week 2\10mM Inhibitor\Excel\junk1.BKNSaved as C:\Users\chemlab\Desktop\CHEM432Fall2022_SarahJames+KnowltonKershner\Phosphatase Kinetics\Week 2\10mM Inhibitor\Excel\junk2.BKNSaved as C:\Users\chemlab\Desktop\CHEM 323\Spring 2023\KSD.BKNSaved as C:\Users\chemlab\Desktop\CHEM 323\Spring 2023\SetArun3.BKN
End Method Modifications

