SetB.run3,,
Time (sec),Abs,
0.25,1.105480671,
0.75,1.101473689,
1.25,1.098379493,
1.75,1.093607783,
2.25,1.091482639,
2.75,1.08835721,
3.25,1.084652662,
3.75,1.081388474,
4.25,1.077861547,
4.75,1.07408154,
5.25,1.07132709,
5.75,1.066637874,
6.25,1.065354586,
6.75,1.061231017,
7.25,1.057866335,
7.75,1.054531932,
8.25,1.051680684,
8.75,1.048611641,
9.25,1.044386029,
9.75,1.041089654,
10.25,1.038301468,
10.75,1.035688519,
11.25,1.031677127,
11.75,1.027854323,
12.25,1.025168538,
12.75,1.021245003,
13.25,1.017726779,
13.75,1.015086412,
14.25,1.011937618,
14.75,1.008948088,
15.25,1.005268097,
15.75,1.001816154,
16.25,0.9987409115,
16.75,0.9946740866,
17.25,0.9909452796,
17.75,0.9876652956,
18.25,0.9845684767,
18.75,0.9822946191,
19.25,0.9780083299,
19.75,0.9744263887,
20.25,0.9716258049,
20.75,0.9688677788,
21.25,0.9652076364,
21.75,0.9611034989,
22.25,0.9590386748,
22.75,0.9558320642,
23.25,0.9527118206,
23.75,0.9483519793,
24.25,0.9458373785,
24.75,0.9427219629,
25.25,0.9390322566,
25.75,0.9360389113,
26.25,0.9315943718,
26.75,0.9285325408,
27.25,0.9250438213,
27.75,0.9219177961,
28.25,0.9195414186,
28.75,0.9161175489,
29.25,0.913117826,
29.75,0.910046041,
30.25,0.9060175419,
30.75,0.9029111266,
31.25,0.8988086581,
31.75,0.8954917789,
32.25,0.8924077153,
32.75,0.8889885545,
33.25,0.8851740956,
33.75,0.8823981285,
34.25,0.879627049,
34.75,0.8764289618,
35.25,0.8732724786,
35.75,0.8698744774,
36.25,0.8667035103,
36.75,0.8637784123,
37.25,0.860170126,
37.75,0.8576812148,
38.25,0.8545879126,
38.75,0.8506395817,
39.25,0.8468229771,
39.75,0.8436429501,
40.25,0.8405254483,
40.75,0.8374147415,
41.25,0.8342725635,
41.75,0.8304127455,
42.25,0.8272057772,
42.75,0.8241410255,
43.25,0.8210780025,
43.75,0.8179089427,
44.25,0.8149114847,
44.75,0.8108993173,
45.25,0.808409512,
45.75,0.8048359156,
46.25,0.8027457595,
46.75,0.7994392514,
47.25,0.7961429954,
47.75,0.7927412987,
48.25,0.7899158001,
48.75,0.7869939208,
49.25,0.7837250829,
49.75,0.7806393504,
50.25,0.777802527,
50.75,0.7742444873,
51.25,0.7714722753,
51.75,0.7683239579,
52.25,0.7653316855,
52.75,0.7617532611,
53.25,0.7586431503,
53.75,0.7559525371,
54.25,0.7525612116,
54.75,0.7499108315,
55.25,0.7467155457,
55.75,0.7435920238,
56.25,0.7404955626,
56.75,0.7374232411,
57.25,0.7344995141,
57.75,0.7310426831,
58.25,0.7282312512,
58.75,0.7252988219,
59.25,0.7220427394,
59.75,0.7190030813,
60.25,0.7160400748,
60.75,0.7131589651,
61.25,0.7098855972,
61.75,0.7069721818,
62.25,0.7041772008,
62.75,0.7010558844,
63.25,0.6978835464,
63.75,0.694791317,
64.25,0.6914125681,
64.75,0.6887940764,
65.25,0.6857447624,
65.75,0.6826848984,
66.25,0.6795148253,
66.75,0.6766960025,
67.25,0.6739360094,
67.75,0.6706897616,
68.25,0.6681591868,
68.75,0.6650518775,
69.25,0.6617493629,
69.75,0.6584963202,
70.25,0.6557478309,
70.75,0.6531735063,
71.25,0.6502139568,
71.75,0.6466616988,
72.25,0.6445661187,
72.75,0.6413360238,
73.25,0.6385099888,
73.75,0.6357973218,
74.25,0.6329225898,
74.75,0.6297841072,
75.25,0.6271081567,
75.75,0.6239510775,
76.25,0.6215373874,
76.75,0.6183887124,
77.25,0.6155009866,
77.75,0.612742424,
78.25,0.6096850634,
78.75,0.6068736911,
79.25,0.6039277315,
79.75,0.6010957956,
80.25,0.5988445878,
80.75,0.5958937407,
81.25,0.592633307,
81.75,0.5903414488,
82.25,0.5873462558,
82.75,0.5842521191,
83.25,0.5817486048,
83.75,0.578692019,
84.25,0.5758870244,
84.75,0.5731892586,
85.25,0.5706735849,
85.75,0.5676623583,
86.25,0.5649346709,
86.75,0.562143147,
87.25,0.5596328378,
87.75,0.556722343,
88.25,0.5544416308,
88.75,0.5520929098,
89.25,0.5488157272,
89.75,0.546426475,
90.25,0.5435519218,
90.75,0.5410198569,
91.25,0.5382811427,
91.75,0.5355576277,
92.25,0.5330917835,
92.75,0.5302437544,
93.25,0.527613759,
93.75,0.5258162022,
94.25,0.5247513652,
94.75,0.5241979957,
95.25,0.5222468972,
95.75,0.5201914907,
96.25,0.5174884796,
96.75,0.5125699043,
97.25,0.5075241923,
97.75,0.5042853951,
98.25,0.5018862486,
98.75,0.4994693398,
99.25,0.4967413247,
99.75,0.4944558144,
100.25,0.4918928146,
100.75,0.48945871,
101.25,0.4872353077,
101.75,0.4844994843,
102.25,0.48189044,
102.75,0.4798547626,
103.25,0.4771412909,
103.75,0.4747093618,
104.25,0.472291708,
104.75,0.4698071182,
105.25,0.4673356712,
105.75,0.4652540982,
106.25,0.4624601603,
106.75,0.4601589739,
107.25,0.4577945769,
107.75,0.4556137919,
108.25,0.4532692432,
108.75,0.4508914351,
109.25,0.4483966231,
109.75,0.4459067881,
110.25,0.4438978136,
110.75,0.4418138266,
111.25,0.4391544759,
111.75,0.4369554818,
112.25,0.4343996942,
112.75,0.4322063029,
113.25,0.4299226701,
113.75,0.4277639389,
114.25,0.4257948101,
114.75,0.4230613112,
115.25,0.4210643768,
115.75,0.418780297,
116.25,0.4166104198,
116.75,0.4142486155,
117.25,0.412204206,
117.75,0.4100135267,
118.25,0.4079357684,
118.75,0.4058074057,
119.25,0.4030719697,
119.75,0.4015102386,
120.25,0.3990969062,
120.75,0.3970053792,
121.25,0.3952787519,
121.75,0.3930752873,
122.25,0.3906483948,
122.75,0.3887509406,
123.25,0.3860982656,
123.75,0.3841523826,
124.25,0.382463783,
124.75,0.3802975118,
125.25,0.3783140481,
125.75,0.3760260046,
126.25,0.3740799427,
126.75,0.3720866144,
127.25,0.3699136376,
127.75,0.3677971363,
128.25,0.3660705984,
128.75,0.363985002,
129.25,0.3620096445,
129.75,0.359944731,
130.25,0.3579034507,
130.75,0.3559686542,
131.25,0.3541267216,
131.75,0.3520630598,
132.25,0.3500869572,
132.75,0.3481884003,
133.25,0.3464528322,
133.75,0.3444582224,
134.25,0.3426448405,
134.75,0.3405649364,
135.25,0.3387227058,
135.75,0.3366337121,
136.25,0.3351249695,
136.75,0.3331719935,
137.25,0.3312395215,
137.75,0.3292655945,
138.25,0.3277499378,
138.75,0.325643152,
139.25,0.3240233064,
139.75,0.3221802413,
140.25,0.3202154934,
140.75,0.3185403645,
141.25,0.3167024553,
141.75,0.3150114715,
142.25,0.3132144809,
142.75,0.3114615083,
143.25,0.3096590936,
143.75,0.3078351319,
144.25,0.3061956167,
144.75,0.3044357598,
145.25,0.3027901947,
145.75,0.301050663,
146.25,0.2993561327,
146.75,0.2978123128,
147.25,0.2960780859,
147.75,0.2943582833,
148.25,0.2928118408,
148.75,0.2911608517,
149.25,0.2893398106,
149.75,0.2877439559,
150.25,0.2861476243,
150.75,0.2845904231,
151.25,0.282951206,
151.75,0.2811432779,
152.25,0.2797996998,
152.75,0.2782330811,
153.25,0.2768613994,
153.75,0.2750944495,
154.25,0.2737976313,
154.75,0.2721719742,
155.25,0.2706509829,
155.75,0.2691635191,
156.25,0.2675346732,
156.75,0.2660019696,
157.25,0.2642790377,
157.75,0.2630726397,
158.25,0.261488229,
158.75,0.2601132989,
159.25,0.2586278319,
159.75,0.2571698725,
160.25,0.2555860877,
160.75,0.2543325722,
161.25,0.2528584301,
161.75,0.2515325844,
162.25,0.2501464486,
162.75,0.248486504,
163.25,0.2472224534,
163.75,0.2458217591,
164.25,0.2442936301,
164.75,0.2429391891,
165.25,0.241792962,
165.75,0.240438506,
166.25,0.2389027774,
166.75,0.2376769185,
167.25,0.2360732853,
167.75,0.2349146456,
168.25,0.233591333,
168.75,0.2323140949,
169.25,0.230860427,
169.75,0.2297882587,
170.25,0.2285187691,
170.75,0.2272330821,
171.25,0.2260897309,
171.75,0.2245254219,
172.25,0.2234033346,
172.75,0.2219744772,
173.25,0.2207130939,
173.75,0.219583109,
174.25,0.2182543278,
174.75,0.2171644419,
175.25,0.2158340365,
175.75,0.2148019373,
176.25,0.2135002017,
176.75,0.2123397589,
177.25,0.2110246718,
177.75,0.2099725306,
178.25,0.2087818086,
178.75,0.20774436,
179.25,0.2065296173,
179.75,0.2054893672,
180.25,0.2042313665,
180.75,0.2032051235,
181.25,0.2018363476,
181.75,0.2008269578,
182.25,0.199911505,
182.75,0.1986354589,
183.25,0.1976902336,
183.75,0.1965089142,
184.25,0.1955843419,
184.75,0.1941274554,
185.25,0.1932837218,
185.75,0.1923341006,
186.25,0.1912971437,
186.75,0.1902328134,
187.25,0.1890256256,
187.75,0.1882698238,
188.25,0.1872099787,
188.75,0.1860324293,
189.25,0.1848800182,
189.75,0.1842126846,
190.25,0.1832724214,
190.75,0.1821338683,
191.25,0.1812835783,
191.75,0.1802474409,
192.25,0.1792607754,
192.75,0.1782091558,
193.25,0.1773989499,
193.75,0.1763634384,
194.25,0.1753513366,
194.75,0.1745018959,
195.25,0.1736360192,
195.75,0.1725112647,
196.25,0.1716846973,
196.75,0.1706950366,
197.25,0.1697885096,
197.75,0.1691442728,
198.25,0.1680717319,
198.75,0.1673311591,
199.25,0.1662233472,
199.75,0.1655255407,
200.25,0.1645025015,
200.75,0.1636541188,
201.25,0.1628645957,
201.75,0.1621301323,
202.25,0.1612419337,
202.75,0.1604470462,
203.25,0.1595819443,
203.75,0.1584910154,
204.25,0.1578445286,
204.75,0.1570258886,
205.25,0.1561050713,
205.75,0.1553687155,
206.25,0.1547449827,
206.75,0.1538180262,
207.25,0.1531143039,
207.75,0.1522751451,
208.25,0.1516046226,
208.75,0.1507117897,
209.25,0.1499582976,
209.75,0.1491764039,
210.25,0.1484726071,
210.75,0.1477473229,
211.25,0.1470363587,
211.75,0.1462898999,
212.25,0.145573616,
212.75,0.1447328478,
213.25,0.1438760608,
213.75,0.1432869285,
214.25,0.1425101906,
214.75,0.1418046504,
215.25,0.1413776278,
215.75,0.1404687613,
216.25,0.1396971494,
216.75,0.1390342116,
217.25,0.1383731365,
217.75,0.1377480328,
218.25,0.1370774806,
218.75,0.1363044232,
219.25,0.1357949972,
219.75,0.1350827813,
220.25,0.1343741417,
220.75,0.1338911057,
221.25,0.1331448704,
221.75,0.1326917261,
222.25,0.1318085939,
222.75,0.1312026829,
223.25,0.1306624413,
223.75,0.1298769265,
224.25,0.1294265836,
224.75,0.1286523938,
225.25,0.1281643808,
225.75,0.1273867339,
226.25,0.1268213689,
226.75,0.1262700707,
227.25,0.1258858889,
227.75,0.1251582354,
228.25,0.124722898,
228.75,0.1239609718,
229.25,0.1234079525,
229.75,0.1230797246,
230.25,0.122261934,
230.75,0.121764496,
231.25,0.1210350245,
231.75,0.120417431,
232.25,0.1201992929,
232.75,0.1195667982,
233.25,0.1189682409,
233.75,0.1184263378,
234.25,0.118059352,
234.75,0.1173647344,
235.25,0.1170000657,
235.75,0.1163408384,
236.25,0.1158089936,
236.75,0.1155332997,
237.25,0.1149311364,
237.75,0.1141687334,
238.25,0.1138906851,
238.75,0.1133337691,
239.25,0.1128696352,
239.75,0.1123461798,
240.25,0.1119183004,
240.75,0.1113847792,
241.25,0.1109240651,
241.75,0.1103927642,
242.25,0.1099677384,
242.75,0.1094611213,
243.25,0.1089289114,
243.75,0.1085177138,
244.25,0.1079066098,
244.75,0.1075839475,
245.25,0.1071968824,
245.75,0.1066081747,
246.25,0.1061601266,
246.75,0.1057784557,
247.25,0.1053569317,
247.75,0.1046990901,
248.25,0.1044187993,
248.75,0.1041063517,
249.25,0.1034525037,
249.75,0.103023611,
250.25,0.1028826609,
250.75,0.1022104993,
251.25,0.1019227803,
251.75,0.1013845876,
252.25,0.1011951119,
252.75,0.1006280854,
253.25,0.1001517698,
253.75,0.09990538657,
254.25,0.09951324761,
254.75,0.09897729009,
255.25,0.09844441712,
255.75,0.0982093215,
256.25,0.09786203504,
256.75,0.09746228158,
257.25,0.09709855914,
257.75,0.09671377391,
258.25,0.09630915523,
258.75,0.09594649822,
259.25,0.09559991956,
259.75,0.09525487572,
260.25,0.0948054418,
260.75,0.09456203878,
261.25,0.09411132336,
261.75,0.09367051721,
262.25,0.09343776107,
262.75,0.09298818558,
263.25,0.09268215299,
263.75,0.09249976277,
264.25,0.09199400991,
264.75,0.09177491069,
265.25,0.09139074385,
265.75,0.09106451273,
266.25,0.09077514708,
266.75,0.09052413702,
267.25,0.08998385817,
267.75,0.08984885365,
268.25,0.08952037245,
268.75,0.08918244392,
269.25,0.08859100938,
269.75,0.08836498857,
270.25,0.08813901991,
270.75,0.0877610743,
271.25,0.08745958656,
271.75,0.08719396591,
272.25,0.08695216477,
272.75,0.08641763777,
273.25,0.08608934283,
273.75,0.08588777483,
274.25,0.08600018919,
274.75,0.08519931138,
275.25,0.08502901345,
275.75,0.08463705331,
276.25,0.08458349109,
276.75,0.08427520841,
277.25,0.08385372162,
277.75,0.08376738429,
278.25,0.08351129293,
278.75,0.08302908391,
279.25,0.08272215724,
279.75,0.08256074786,
280.25,0.08221933246,
280.75,0.08191157877,
281.25,0.08173740655,
281.75,0.08147466928,
282.25,0.08110836893,
282.75,0.08082362264,
283.25,0.08074723929,
283.75,0.08037918061,
284.25,0.080197528,
284.75,0.07975278795,
285.25,0.07945373654,
285.75,0.07921418548,
286.25,0.07905957103,
286.75,0.07889485359,
287.25,0.07841470093,
287.75,0.07848643512,
288.25,0.07821053267,
288.75,0.07789265364,
289.25,0.07754071057,
289.75,0.07727941871,
290.25,0.07698527724,
290.75,0.07698969543,
291.25,0.07675814629,
291.75,0.07643052191,
292.25,0.07619334012,
292.75,0.07608516514,
293.25,0.07573607564,
293.75,0.07547365129,
294.25,0.07528886199,
294.75,0.07503402978,
295.25,0.074744232,
295.75,0.07456814498,
296.25,0.07454466075,
296.75,0.07435455918,
297.25,0.07388839126,
297.75,0.07376884669,
298.25,0.07350570709,
298.75,0.07356129587,
299.25,0.07312596589,
299.75,0.07296942919,
300.25,0.07283226401,
300.75,0.07277548313,
301.25,0.07221586257,
301.75,0.07212942094,
302.25,0.071936436,
302.75,0.07181125879,
303.25,0.07160635293,
303.75,0.07149213552,
304.25,0.07117431611,
304.75,0.07088010013,
305.25,0.0707077086,
305.75,0.07062774897,
306.25,0.07039992511,
306.75,0.07004311681,
307.25,0.06994783878,
307.75,0.06985494494,
308.25,0.06959486008,
308.75,0.06937022507,
309.25,0.06943184882,
309.75,0.06923744082,
310.25,0.06876599044,
310.75,0.06869245321,
311.25,0.06845907122,
311.75,0.06846845895,
312.25,0.06821066141,
312.75,0.06799951196,
313.25,0.06780408323,
313.75,0.06761629879,
314.25,0.06755805016,
314.75,0.0672596544,
315.25,0.06709340215,
315.75,0.06702449918,
316.25,0.06679291278,
316.75,0.06672085822,
317.25,0.06638336927,
317.75,0.0664036721,
318.25,0.06618085504,
318.75,0.06605814397,
319.25,0.0658807829,
319.75,0.06581213325,
320.25,0.06552243233,
320.75,0.06546147913,
321.25,0.06530293077,
321.75,0.06513414532,
322.25,0.06499321014,
322.75,0.06495022029,
323.25,0.06453415006,
323.75,0.06448126584,
324.25,0.06413318962,
324.75,0.06417864561,
325.25,0.0639751181,
325.75,0.06380873919,
326.25,0.06383542717,
326.75,0.06363043934,
327.25,0.06359945238,
327.75,0.06328684092,
328.25,0.06321950257,
328.75,0.06308624893,
329.25,0.06292535365,
329.75,0.06286668032,
330.25,0.06286372244,
330.75,0.06252336502,
331.25,0.06220573187,
331.75,0.06232885271,
332.25,0.06225039437,
332.75,0.06191812456,
333.25,0.06185505167,
333.75,0.06156218797,
334.25,0.06167486683,
334.75,0.06141301617,
335.25,0.06130738184,
335.75,0.06110763922,
336.25,0.06120153889,
336.75,0.06093750149,
337.25,0.06068705022,
337.75,0.06069615856,
338.25,0.06058638543,
338.75,0.06041362509,
339.25,0.06037099659,
339.75,0.06019505113,
340.25,0.0601349324,
340.75,0.05995260552,
341.25,0.06001593918,
341.75,0.05976895988,
342.25,0.05968487263,
342.75,0.0594676733,
343.25,0.05945850164,
343.75,0.05949216336,
344.25,0.05929245055,
344.75,0.05901607871,
345.25,0.05886433646,
345.75,0.05883982033,
346.25,0.0587483272,
346.75,0.05884678662,
347.25,0.05843533948,
347.75,0.05843155086,
348.25,0.05836142972,
348.75,0.0581545718,
349.25,0.05824588239,
349.75,0.05786780268,
350.25,0.05785203725,
350.75,0.05774915963,
351.25,0.05778691918,
351.75,0.05769966543,
352.25,0.05743240193,
352.75,0.05738690495,
353.25,0.05723505095,
353.75,0.05718909949,
354.25,0.05704726279,
354.75,0.05719432607,
355.25,0.05687339976,
355.75,0.05656972155,
356.25,0.05670476332,
356.75,0.05663279817,
357.25,0.05646581948,
357.75,0.05627863109,
358.25,0.05639625341,
358.75,0.05607005209,
359.25,0.05613818392,
359.75,0.05610572174,
360.25,0.05594474822,
360.75,0.05586310476,
361.25,0.05581344292,
361.75,0.0556416288,
362.25,0.05564565957,
362.75,0.05555695668,
363.25,0.05551015213,
363.75,0.05541915074,
364.25,0.05534507707,
364.75,0.05535689741,
365.25,0.0550994128,
365.75,0.0551119633,
366.25,0.05489947647,
366.75,0.0548690483,
367.25,0.05468847603,
367.75,0.05477427319,
368.25,0.05486646295,
368.75,0.05471625179,
369.25,0.05453110859,
369.75,0.05450868607,
370.25,0.05428027362,
370.75,0.05429919437,
371.25,0.05441724882,
371.75,0.05416994169,
372.25,0.05415920541,
372.75,0.05410962179,
373.25,0.05385487154,
373.75,0.05382258072,
374.25,0.05383740738,
374.75,0.05366098508,
375.25,0.05337605253,
375.75,0.05356755853,
376.25,0.05351309478,
376.75,0.05342224613,
377.25,0.05329632387,
377.75,0.05321520939,
378.25,0.05326000974,
378.75,0.05299943686,
379.25,0.05309069529,
379.75,0.05300031602,
380.25,0.05295375735,
380.75,0.05278716609,
381.25,0.05273136497,
381.75,0.05245159939,
382.25,0.05263276026,
382.75,0.05255594477,
383.25,0.05234736577,
383.75,0.05229994282,
384.25,0.05220777169,
384.75,0.05217659846,
385.25,0.05208628997,
385.75,0.05202824622,
386.25,0.05188502371,
386.75,0.05188172683,
387.25,0.05177249759,
387.75,0.05179632455,
388.25,0.0518159233,
388.75,0.05162399262,
389.25,0.05144762248,
389.75,0.05165136978,
390.25,0.05145106092,
390.75,0.05147248134,
391.25,0.05132058263,
391.75,0.05132550746,
392.25,0.05132486671,
392.75,0.05120916292,
393.25,0.05095715821,
393.75,0.05100850761,
394.25,0.05107491836,
394.75,0.05103034154,
395.25,0.05077067018,
395.75,0.05081763119,
396.25,0.05074046925,
396.75,0.05069505423,
397.25,0.05059077591,
397.75,0.05046669021,
398.25,0.05043927208,
398.75,0.05050012842,
399.25,0.05030851811,
399.75,0.05039398,
400.25,0.05034836754,
400.75,0.0502708815,
401.25,0.05031203479,
401.75,0.05007353425,
402.25,0.05000779778,
402.75,0.04990118742,
403.25,0.05010415241,
403.75,0.05003879219,
404.25,0.05001026765,
404.75,0.04999696463,
405.25,0.0497809574,
405.75,0.0499125421,
406.25,0.04976095632,
406.75,0.04957060143,
407.25,0.04953563586,
407.75,0.049541004,
408.25,0.049500186,
408.75,0.0494405143,
409.25,0.04942218214,
409.75,0.04922910035,
410.25,0.04934134707,
410.75,0.04922344908,
411.25,0.04928338155,
411.75,0.0490956679,
412.25,0.04903677478,
412.75,0.04904494807,
413.25,0.04893805087,
413.75,0.04907946661,
414.25,0.04898722097,
414.75,0.04878205806,
415.25,0.04868596792,
415.75,0.04882393777,
416.25,0.04886136577,
416.75,0.04870032892,
417.25,0.04849825054,
417.75,0.04848997295,
418.25,0.04874481261,
418.75,0.04852994904,
419.25,0.04858720675,
419.75,0.04833066836,
420.25,0.04838743806,
420.75,0.04831605777,
421.25,0.04817674309,
421.75,0.04831356928,
422.25,0.04836851358,
422.75,0.04824570194,
423.25,0.04806725308,
423.75,0.0481017828,
424.25,0.04812861606,
424.75,0.04810605943,
425.25,0.0480267182,
425.75,0.04801408201,
426.25,0.04794941097,
426.75,0.04779955,
427.25,0.04783735052,
427.75,0.04773950577,
428.25,0.0477280356,
428.75,0.04770743474,
429.25,0.04755208269,
429.75,0.04760563001,
430.25,0.04751523212,
430.75,0.04737943411,
431.25,0.04760040343,
431.75,0.04750474915,
432.25,0.04741953686,
432.75,0.04737781733,
433.25,0.04732331634,
433.75,0.0472878702,
434.25,0.0473107025,
434.75,0.0473356992,
435.25,0.04715070128,
435.75,0.04709002376,
436.25,0.04701830819,
436.75,0.04713849723,
437.25,0.04695168138,
437.75,0.04721205309,
438.25,0.04696702585,
438.75,0.04701822251,
439.25,0.04684665427,
439.75,0.04704657942,
440.25,0.04676318541,
440.75,0.04689140618,
441.25,0.04671530426,
441.75,0.04676751047,
442.25,0.04672273993,
442.75,0.04679622501,
443.25,0.04673461616,
443.75,0.04666863754,
444.25,0.04674534127,
444.75,0.04647689313,
445.25,0.04654745385,
445.75,0.04662998766,
446.25,0.04634839296,
446.75,0.04648006335,
447.25,0.04646332562,
447.75,0.04634948447,
448.25,0.04638833925,
448.75,0.046463985,
449.25,0.04621817172,
449.75,0.04638341442,
450.25,0.04631645232,
450.75,0.04614536092,
451.25,0.04628293216,
451.75,0.04616191238,
452.25,0.04623541981,
