SetCrun4,,
Time (sec),Abs,
0.25,0.9740039706,
0.75,0.9684188962,
1.25,0.9629739523,
1.75,0.9581938386,
2.25,0.9531425834,
2.75,0.9483453631,
3.25,0.9439264536,
3.75,0.9400005937,
4.25,0.936260283,
4.75,0.9318268895,
5.25,0.9286208749,
5.75,0.9245906472,
6.25,0.9216178656,
6.75,0.9184629321,
7.25,0.9155881405,
7.75,0.9117819071,
8.25,0.9096634984,
8.75,0.9060989022,
9.25,0.9033634663,
9.75,0.901499033,
10.25,0.8989197016,
10.75,0.8967180848,
11.25,0.8945741653,
11.75,0.8926795721,
12.25,0.8903225064,
12.75,0.8877763748,
13.25,0.8863601089,
13.75,0.8845980763,
14.25,0.8821493983,
14.75,0.8798773885,
15.25,0.8782691956,
15.75,0.8769358397,
16.25,0.8752918243,
16.75,0.8737262487,
17.25,0.8718668818,
17.75,0.8698589802,
18.25,0.8686313629,
18.75,0.8675376773,
19.25,0.8660448194,
19.75,0.8640121222,
20.25,0.8630148768,
20.75,0.8609952927,
21.25,0.8602954745,
21.75,0.8589632511,
22.25,0.8573794365,
22.75,0.8565173149,
23.25,0.8556338549,
23.75,0.8538506031,
24.25,0.8532706499,
24.75,0.8514273763,
25.25,0.8506566286,
25.75,0.8495680094,
26.25,0.8487658501,
26.75,0.8470235467,
27.25,0.8464215994,
27.75,0.8454935551,
28.25,0.8438096642,
28.75,0.8431801796,
29.25,0.8432270885,
29.75,0.841406405,
30.25,0.8406748772,
30.75,0.8401391506,
31.25,0.8390476108,
31.75,0.838314414,
32.25,0.8374922872,
32.75,0.8367047906,
33.25,0.8357530832,
33.75,0.8347069621,
34.25,0.8342267275,
34.75,0.833842814,
35.25,0.8332810402,
35.75,0.8322446942,
36.25,0.8314054012,
36.75,0.8308928013,
37.25,0.8302473426,
37.75,0.8297601342,
38.25,0.829298079,
38.75,0.8278121948,
39.25,0.8276190162,
39.75,0.8268657327,
40.25,0.8263521194,
40.75,0.8255426884,
41.25,0.825034678,
41.75,0.8241435289,
42.25,0.8240715265,
42.75,0.8241430521,
43.25,0.8231128454,
43.75,0.8226469755,
44.25,0.8215166926,
44.75,0.8213529587,
45.25,0.8211692572,
45.75,0.8204477429,
46.25,0.8199883699,
46.75,0.8195756078,
47.25,0.8192292452,
47.75,0.8185529709,
48.25,0.818236351,
48.75,0.8182413578,
49.25,0.8177288175,
49.75,0.8170194626,
50.25,0.8155863285,
50.75,0.8158724904,
51.25,0.8155673742,
51.75,0.8144509792,
52.25,0.8143187165,
52.75,0.8138355017,
53.25,0.8134725094,
53.75,0.8127385378,
54.25,0.8125205636,
54.75,0.8122947216,
55.25,0.8119856715,
55.75,0.8113409281,
56.25,0.8107944727,
56.75,0.8107551336,
57.25,0.8100131154,
57.75,0.8101081848,
58.25,0.8100863695,
58.75,0.8090093732,
59.25,0.8085967302,
59.75,0.8082569838,
60.25,0.8073475361,
60.75,0.8073391318,
61.25,0.8073653579,
61.75,0.8068261743,
62.25,0.8066408038,
62.75,0.8058819175,
63.25,0.8058726192,
63.75,0.8051941395,
64.25,0.8050479293,
64.75,0.8048863411,
65.25,0.8049321771,
65.75,0.8040123582,
66.25,0.8036871552,
66.75,0.8032689691,
67.25,0.8036418557,
67.75,0.8028870225,
68.25,0.8025218844,
68.75,0.8027377129,
69.25,0.8022657037,
69.75,0.8015483022,
70.25,0.8012912869,
70.75,0.8014400005,
71.25,0.8012419939,
71.75,0.8002246022,
72.25,0.8001842499,
72.75,0.7998715639,
73.25,0.7996621132,
73.75,0.7998847961,
74.25,0.7996698618,
74.75,0.7986822128,
75.25,0.7988870144,
75.75,0.7983382344,
76.25,0.7980585694,
76.75,0.7975000143,
77.25,0.7974711061,
77.75,0.7967321277,
78.25,0.7967014313,
78.75,0.7964861393,
79.25,0.7962276936,
79.75,0.7961264849,
80.25,0.795807898,
80.75,0.7957314253,
81.25,0.7954995632,
81.75,0.7951515317,
82.25,0.7953015566,
82.75,0.7955346704,
83.25,0.7958364487,
83.75,0.7953081727,
84.25,0.7940642238,
84.75,0.7930434942,
85.25,0.7932120562,
85.75,0.7923189402,
86.25,0.7925414443,
86.75,0.7927817702,
87.25,0.7921629548,
87.75,0.791711092,
88.25,0.7912886143,
88.75,0.7909034491,
89.25,0.7909974456,
89.75,0.7910472751,
90.25,0.790507853,
90.75,0.7898215652,
91.25,0.7900506258,
91.75,0.7897986174,
92.25,0.7899720073,
92.75,0.7895976305,
93.25,0.7891800404,
93.75,0.7891956568,
94.25,0.7885161042,
94.75,0.7878339291,
95.25,0.7878724337,
95.75,0.7878503203,
96.25,0.7874975204,
96.75,0.7871367335,
97.25,0.7867914438,
97.75,0.7865658402,
98.25,0.7865492702,
98.75,0.7860561609,
99.25,0.7862299085,
99.75,0.7855709195,
100.25,0.7853656411,
100.75,0.7849666476,
101.25,0.7849042416,
101.75,0.7847847939,
102.25,0.7840629816,
102.75,0.7846000195,
103.25,0.7844846249,
103.75,0.7834373116,
104.25,0.7833757997,
104.75,0.7829367518,
105.25,0.7832778096,
105.75,0.7828842402,
106.25,0.7825495601,
106.75,0.7821750045,
107.25,0.7820287347,
107.75,0.7816393375,
108.25,0.7812232971,
108.75,0.7808639407,
109.25,0.7810562253,
109.75,0.7805731893,
110.25,0.7802751064,
110.75,0.7801701427,
111.25,0.7802198529,
111.75,0.7796599269,
112.25,0.7798582911,
112.75,0.7797525525,
113.25,0.7789196372,
113.75,0.7787986994,
114.25,0.7784009576,
114.75,0.7784370184,
115.25,0.7782867551,
115.75,0.7775797248,
116.25,0.7779728174,
116.75,0.7776057124,
117.25,0.7769474983,
117.75,0.7776725292,
118.25,0.7769718766,
118.75,0.7765973806,
119.25,0.7759922147,
119.75,0.7762970924,
120.25,0.7756177783,
120.75,0.7757041454,
121.25,0.7754303217,
121.75,0.7748993039,
122.25,0.7746203542,
122.75,0.7748872638,
123.25,0.7745757699,
123.75,0.7742264271,
124.25,0.7736335993,
124.75,0.7736908197,
125.25,0.7732768059,
125.75,0.7731126547,
126.25,0.7732042074,
126.75,0.7728698254,
127.25,0.7724080086,
127.75,0.7725912333,
128.25,0.77233845,
128.75,0.7717329264,
129.25,0.7719586492,
129.75,0.7717663646,
130.25,0.7709854245,
130.75,0.7704964876,
131.25,0.7702907324,
131.75,0.7706148624,
132.25,0.7701564431,
132.75,0.7700579762,
133.25,0.7695553303,
133.75,0.7693895698,
134.25,0.7688886523,
134.75,0.7693411708,
135.25,0.7692345381,
135.75,0.7685829401,
136.25,0.7683149576,
136.75,0.7681839466,
137.25,0.7679252625,
137.75,0.7679501772,
138.25,0.7673586607,
138.75,0.7671990395,
139.25,0.7670058608,
139.75,0.7670809031,
140.25,0.7664526701,
140.75,0.7663421631,
141.25,0.7661039829,
141.75,0.7658976316,
142.25,0.7653638721,
142.75,0.7651104331,
143.25,0.7649731636,
143.75,0.7647972703,
144.25,0.7644555569,
144.75,0.7643181682,
145.25,0.7645577788,
145.75,0.7638244033,
146.25,0.7634496689,
146.75,0.7636848092,
147.25,0.7631291747,
147.75,0.7630898952,
148.25,0.7621420026,
148.75,0.7619653344,
149.25,0.7624325156,
149.75,0.7620625496,
150.25,0.7614996433,
150.75,0.7614551783,
151.25,0.7610461116,
151.75,0.7610157132,
152.25,0.7608312964,
152.75,0.7604237795,
153.25,0.7605944276,
153.75,0.7602524757,
154.25,0.7594922185,
154.75,0.7597075701,
155.25,0.7596648335,
155.75,0.7595785856,
156.25,0.7590919137,
156.75,0.7589254975,
157.25,0.7583361864,
157.75,0.7584605217,
158.25,0.7576771379,
158.75,0.7582740784,
159.25,0.7578348517,
159.75,0.7573801279,
160.25,0.757580936,
160.75,0.7569981813,
161.25,0.7569459677,
161.75,0.7563688159,
162.25,0.7567492127,
162.75,0.7560901642,
163.25,0.7555205226,
163.75,0.7556033134,
164.25,0.7551465034,
164.75,0.7552753091,
165.25,0.7550830245,
165.75,0.7547351718,
166.25,0.7546607852,
166.75,0.7543756962,
167.25,0.7539350986,
167.75,0.7537961006,
168.25,0.7534849644,
168.75,0.7531287074,
169.25,0.7535377145,
169.75,0.7531776428,
170.25,0.7529730797,
170.75,0.7531474829,
171.25,0.7524600029,
171.75,0.7524410486,
172.25,0.7517657876,
172.75,0.7513155341,
173.25,0.7515947223,
173.75,0.7513391972,
174.25,0.7516971827,
174.75,0.7504493594,
175.25,0.7505395412,
175.75,0.7503300309,
176.25,0.7500652075,
176.75,0.7500916719,
177.25,0.7497672439,
177.75,0.7493761778,
178.25,0.749227345,
178.75,0.7489978075,
179.25,0.7491386533,
179.75,0.7486929297,
180.25,0.7482274771,
180.75,0.7479919791,
181.25,0.7478430867,
181.75,0.7484292388,
182.25,0.7476318479,
182.75,0.7472741604,
183.25,0.7472043037,
183.75,0.7471453547,
184.25,0.7468454242,
184.75,0.7466171384,
185.25,0.7463620305,
185.75,0.7462058067,
186.25,0.7460215688,
186.75,0.746178627,
187.25,0.7461477518,
187.75,0.7452350855,
188.25,0.7450355291,
188.75,0.7447320223,
189.25,0.74506253,
189.75,0.7445228696,
190.25,0.7443211079,
190.75,0.7441776991,
191.25,0.7436162233,
191.75,0.7433682084,
192.25,0.7434800863,
192.75,0.7431347966,
193.25,0.743046999,
193.75,0.7423793077,
194.25,0.7426077724,
194.75,0.742228508,
195.25,0.7424904704,
195.75,0.742169261,
196.25,0.7417008281,
196.75,0.7417673469,
197.25,0.7412534952,
197.75,0.7410308123,
198.25,0.7409319282,
198.75,0.7404774427,
199.25,0.7410455942,
199.75,0.7404744029,
200.25,0.7404004335,
200.75,0.739677608,
201.25,0.7399322391,
201.75,0.7395872474,
202.25,0.7391588092,
202.75,0.7393607497,
203.25,0.7386723161,
203.75,0.738760829,
204.25,0.7385643721,
204.75,0.7384468913,
205.25,0.7380304337,
205.75,0.7383764982,
206.25,0.7375723124,
206.75,0.7375788093,
207.25,0.737627089,
207.75,0.7374782562,
208.25,0.7363363504,
208.75,0.7367247939,
209.25,0.7363448143,
209.75,0.736163795,
210.25,0.7360739708,
210.75,0.7355516553,
211.25,0.7358381152,
211.75,0.7355132103,
212.25,0.7348527908,
212.75,0.7352206111,
213.25,0.7351772785,
213.75,0.7344198227,
214.25,0.73414433,
214.75,0.7347007394,
215.25,0.7344330549,
215.75,0.7342059612,
216.25,0.7337115407,
216.75,0.7337666154,
217.25,0.7332791686,
217.75,0.7330289483,
218.25,0.7328352332,
218.75,0.7330874205,
219.25,0.7328728437,
219.75,0.7326988578,
220.25,0.7320982218,
220.75,0.7314558029,
221.25,0.7318504453,
221.75,0.7312439084,
222.25,0.731051147,
222.75,0.7312940955,
223.25,0.7314391732,
223.75,0.7308498621,
224.25,0.7302058935,
224.75,0.7299664617,
225.25,0.7303289771,
225.75,0.7299215198,
226.25,0.7299320102,
226.75,0.7299249172,
227.25,0.7295626402,
227.75,0.7290834188,
228.25,0.7293070555,
228.75,0.7288733721,
229.25,0.7286347747,
229.75,0.7286223173,
230.25,0.7282841802,
230.75,0.7281264663,
231.25,0.7281582952,
231.75,0.727609098,
232.25,0.7276518345,
232.75,0.7272047997,
233.25,0.7269796133,
233.75,0.7265538573,
234.25,0.7264606953,
234.75,0.7262682915,
235.25,0.7265070081,
235.75,0.7263402939,
236.25,0.725882113,
236.75,0.7257668376,
237.25,0.7254515886,
237.75,0.725097537,
238.25,0.7249495983,
238.75,0.7249287963,
239.25,0.7249807119,
239.75,0.7241778374,
240.25,0.7243921161,
240.75,0.724064827,
241.25,0.7245540619,
241.75,0.7236807346,
242.25,0.7238460183,
242.75,0.7234038711,
243.25,0.7235387564,
243.75,0.7233742476,
244.25,0.7228580117,
244.75,0.7227066159,
245.25,0.7226316929,
245.75,0.7223038673,
246.25,0.7224112749,
246.75,0.7221525908,
247.25,0.7217043042,
247.75,0.7217700481,
248.25,0.7217212319,
248.75,0.7211707234,
249.25,0.7207868099,
249.75,0.7211616635,
250.25,0.7205842733,
250.75,0.7203184366,
251.25,0.7201753259,
251.75,0.7198331952,
252.25,0.7198862433,
252.75,0.7192715406,
253.25,0.7190088034,
253.75,0.7198327184,
254.25,0.7191242576,
254.75,0.7186748981,
255.25,0.718724966,
255.75,0.7186204195,
256.25,0.7180566192,
256.75,0.7186159492,
257.25,0.7180119753,
257.75,0.7178661227,
258.25,0.7178733349,
258.75,0.7173245549,
259.25,0.7175357938,
259.75,0.7172710896,
260.25,0.7171453834,
260.75,0.7173780799,
261.25,0.7168861032,
261.75,0.7164304256,
262.25,0.7165847421,
262.75,0.7162302732,
263.25,0.7161254287,
263.75,0.715636909,
264.25,0.7154833078,
264.75,0.7152066827,
265.25,0.7156368494,
265.75,0.7147592902,
266.25,0.7147396207,
266.75,0.7147890925,
267.25,0.7143595815,
267.75,0.714491725,
268.25,0.7139995098,
268.75,0.7135480046,
269.25,0.7137928009,
269.75,0.7131953835,
270.25,0.7135199308,
270.75,0.7132363915,
271.25,0.7137328982,
271.75,0.712690115,
272.25,0.7125809193,
272.75,0.712330997,
273.25,0.7122426033,
273.75,0.7126076818,
274.25,0.7119749188,
274.75,0.7114976645,
275.25,0.7115111351,
275.75,0.7116554976,
276.25,0.7116991878,
276.75,0.7111000419,
277.25,0.7109200954,
277.75,0.7108023763,
278.25,0.7108486295,
278.75,0.7106013298,
279.25,0.7101777196,
279.75,0.7100769877,
280.25,0.7096121907,
280.75,0.7097121477,
281.25,0.7095643282,
281.75,0.7092549801,
282.25,0.7093038559,
282.75,0.7092967033,
283.25,0.7088459134,
283.75,0.7088388205,
284.25,0.708597362,
284.75,0.7084257007,
285.25,0.7077804804,
285.75,0.707445085,
286.25,0.7073841691,
286.75,0.7076547742,
287.25,0.7077305913,
287.75,0.7070842981,
288.25,0.7066082358,
288.75,0.7069860697,
289.25,0.7066712976,
289.75,0.7063359618,
290.25,0.7064410448,
290.75,0.7063264847,
291.25,0.7066652775,
291.75,0.7060644627,
292.25,0.7060998082,
292.75,0.7054229975,
293.25,0.7049958706,
293.75,0.7050377727,
294.25,0.7049781084,
294.75,0.7046069503,
295.25,0.7047201991,
295.75,0.7042705417,
296.25,0.704231739,
296.75,0.703791678,
297.25,0.7041226029,
297.75,0.7041602731,
298.25,0.7032588124,
298.75,0.7035138607,
299.25,0.7035203576,
299.75,0.703217268,
300.25,0.7028126121,
300.75,0.702853322,
301.25,0.7030844688,
301.75,0.7030871511,
302.25,0.7026478052,
302.75,0.7021599412,
303.25,0.7016972303,
303.75,0.7022691369,
304.25,0.701774776,
304.75,0.7015564442,
305.25,0.7013255954,
305.75,0.701274395,
306.25,0.7012604475,
306.75,0.7010647655,
307.25,0.7007651329,
307.75,0.7003961205,
308.25,0.7008075714,
308.75,0.7004143596,
309.25,0.7004419565,
309.75,0.700079143,
310.25,0.7001622915,
310.75,0.6991568804,
311.25,0.6998499632,
311.75,0.6992140412,
312.25,0.6990904212,
312.75,0.698846817,
313.25,0.6987380981,
313.75,0.6985731125,
314.25,0.6983493567,
314.75,0.698212862,
315.25,0.6983206868,
315.75,0.6979515553,
316.25,0.6979284286,
316.75,0.6977775693,
317.25,0.6974654198,
317.75,0.697357595,
318.25,0.697024107,
318.75,0.6969323158,
319.25,0.6968829036,
319.75,0.6964155436,
320.25,0.696310997,
320.75,0.696513772,
321.25,0.6960220933,
321.75,0.6963011026,
322.25,0.6963942051,
322.75,0.6955807805,
323.25,0.6954616308,
323.75,0.6953155398,
324.25,0.6956205368,
324.75,0.6952398419,
325.25,0.6950638294,
325.75,0.6947028041,
326.25,0.6945744157,
326.75,0.6942900419,
327.25,0.6942141056,
327.75,0.6943272948,
328.25,0.6933214068,
328.75,0.6940765977,
329.25,0.6935166717,
329.75,0.693308413,
330.25,0.6933553219,
330.75,0.6928431392,
331.25,0.6930384636,
331.75,0.6931365132,
332.25,0.6924344897,
332.75,0.6928248405,
333.25,0.6923974752,
333.75,0.6925658584,
334.25,0.6921687126,
334.75,0.6918530464,
335.25,0.6921072602,
335.75,0.69241184,
336.25,0.6912510395,
336.75,0.6913106441,
337.25,0.6912307143,
337.75,0.6912195086,
338.25,0.6905977726,
338.75,0.6902909875,
339.25,0.6903839707,
339.75,0.6898884773,
340.25,0.6900445223,
340.75,0.6901136637,
341.25,0.6894074678,
341.75,0.6896787286,
342.25,0.6891146302,
342.75,0.6894527078,
343.25,0.6894013286,
343.75,0.6894752383,
344.25,0.6889054179,
344.75,0.6886264086,
345.25,0.6885471344,
345.75,0.6885224581,
346.25,0.6881904602,
346.75,0.6885116696,
347.25,0.6881228089,
347.75,0.6881403327,
348.25,0.688043952,
348.75,0.6878234744,
349.25,0.6875593066,
349.75,0.68706429,
350.25,0.6870995164,
350.75,0.6870648861,
351.25,0.6873246431,
351.75,0.6865992546,
352.25,0.6863632798,
352.75,0.6863005757,
353.25,0.6865693927,
353.75,0.6862563491,
354.25,0.6853173971,
354.75,0.6858291626,
355.25,0.6861966848,
355.75,0.6855393052,
356.25,0.6854175329,
356.75,0.6849341393,
357.25,0.6851263642,
357.75,0.6846901178,
358.25,0.6846802831,
358.75,0.6846428514,
359.25,0.6843984127,
359.75,0.6842922568,
360.25,0.6841616035,
360.75,0.6844921708,
361.25,0.6840391755,
361.75,0.6833530664,
362.25,0.6836510897,
362.75,0.6834974289,
363.25,0.6835913062,
363.75,0.6832432747,
364.25,0.6823865175,
364.75,0.6829149723,
365.25,0.6828240752,
365.75,0.6826190352,
366.25,0.6822112799,
366.75,0.6819041371,
367.25,0.6823987961,
367.75,0.6822848916,
368.25,0.6819448471,
368.75,0.6819111109,
369.25,0.6813905835,
369.75,0.6817321777,
370.25,0.6812640429,
370.75,0.6805579662,
371.25,0.6809111834,
371.75,0.6807414889,
372.25,0.6808692813,
372.75,0.6804365516,
373.25,0.6805139184,
373.75,0.6801757813,
374.25,0.6796075702,
374.75,0.6800050139,
375.25,0.6794630885,
375.75,0.6799234152,
376.25,0.6797173619,
376.75,0.6794779897,
377.25,0.6794433594,
377.75,0.6791191697,
378.25,0.678818047,
378.75,0.6787409186,
379.25,0.6785146594,
379.75,0.6781741977,
380.25,0.6783720255,
380.75,0.678229928,
381.25,0.6778485775,
381.75,0.677953124,
382.25,0.6779124141,
382.75,0.6780030131,
383.25,0.6782004833,
383.75,0.6774144769,
384.25,0.6770833731,
384.75,0.6772612333,
385.25,0.6771742105,
385.75,0.6769290566,
386.25,0.6762901545,
386.75,0.6763017178,
387.25,0.6767920256,
387.75,0.6762407422,
388.25,0.6759924293,
388.75,0.6759591103,
389.25,0.6760107875,
389.75,0.6759386659,
390.25,0.6754969954,
390.75,0.6751983762,
391.25,0.6752580404,
391.75,0.6756530404,
392.25,0.675013423,
392.75,0.6748870015,
393.25,0.6746867299,
393.75,0.674556613,
394.25,0.6743113399,
394.75,0.6742700338,
395.25,0.67449826,
395.75,0.6740026474,
396.25,0.673753798,
396.75,0.673487246,
397.25,0.6734643579,
397.75,0.6735530496,
398.25,0.6735198498,
398.75,0.6730090976,
399.25,0.6731545925,
399.75,0.6729123592,
400.25,0.6728152633,
400.75,0.6726980805,
401.25,0.6722443104,
401.75,0.6722080708,
402.25,0.6721055508,
402.75,0.6723108888,
403.25,0.6721083522,
403.75,0.6713648438,
404.25,0.671456337,
404.75,0.6713616848,
405.25,0.6713338494,
405.75,0.6709532738,
406.25,0.6709956527,
406.75,0.6712865829,
407.25,0.6708387733,
407.75,0.6704590321,
408.25,0.6704570651,
408.75,0.6701109409,
409.25,0.6702364683,
409.75,0.6703813076,
410.25,0.6698455215,
410.75,0.6699306369,
411.25,0.6695065498,
411.75,0.6694888473,
412.25,0.6693217754,
412.75,0.6692010164,
413.25,0.6690558195,
413.75,0.669265449,
414.25,0.668977499,
414.75,0.6688216925,
415.25,0.6684999466,
415.75,0.6684166789,
416.25,0.6686597466,
416.75,0.6680508852,
417.25,0.6680984497,
417.75,0.667965889,
418.25,0.6674951911,
418.75,0.6679635048,
419.25,0.6676782966,
419.75,0.6674659848,
420.25,0.6670694351,
420.75,0.6670278907,
421.25,0.6673826575,
421.75,0.6670936942,
422.25,0.6671240926,
422.75,0.6664934754,
423.25,0.6665625572,
423.75,0.6664277315,
424.25,0.666231513,
424.75,0.6657509208,
425.25,0.6657291055,
425.75,0.6661228538,
426.25,0.6655748487,
426.75,0.6656765342,
427.25,0.6655777693,
427.75,0.6652063727,
428.25,0.6650044918,
428.75,0.6653618813,
429.25,0.664814055,
429.75,0.6646921039,
430.25,0.6646618247,
430.75,0.6645672321,
431.25,0.664018333,
431.75,0.6641534567,
432.25,0.6640108824,
432.75,0.6637786627,
433.25,0.6639761329,
433.75,0.6640514731,
434.25,0.6629905105,
434.75,0.6631271243,
435.25,0.662896812,
435.75,0.6626870036,
436.25,0.663015902,
436.75,0.6629349589,
437.25,0.6628019214,
437.75,0.6633718014,
438.25,0.6624053121,
438.75,0.662609756,
439.25,0.6621649265,
439.75,0.6619699597,
440.25,0.6620754004,
440.75,0.6622713208,
441.25,0.6617882848,
441.75,0.6612973213,
442.25,0.6618225574,
442.75,0.6613348722,
443.25,0.6612142324,
443.75,0.6610177755,
444.25,0.6610363126,
444.75,0.6609088182,
445.25,0.6607944369,
445.75,0.6607018113,
446.25,0.6605910659,
446.75,0.6599556208,
447.25,0.6601051092,
447.75,0.6601661444,
448.25,0.6598763466,
448.75,0.6602405906,
449.25,0.6597376466,
449.75,0.6595084667,
450.25,0.6591816545,
450.75,0.6593193412,
451.25,0.6594674587,
451.75,0.6595637798,
452.25,0.659060955,
452.75,0.6587920189,
453.25,0.6590121984,
453.75,0.6588258147,
454.25,0.6583807468,
454.75,0.6582597494,
455.25,0.6586940289,
455.75,0.6582856178,
456.25,0.6579605937,
456.75,0.6577090621,
457.25,0.6574152112,
457.75,0.657866776,
458.25,0.6571447253,
458.75,0.6572442055,
459.25,0.6571352482,
459.75,0.6568713188,
460.25,0.6567096114,
