SetCrun2,,
Time (sec),Abs,
0.25,1.011940122,
0.75,1.001814127,
1.25,0.9916530252,
1.75,0.981267333,
2.25,0.971675396,
2.75,0.9626448154,
3.25,0.9534549117,
3.75,0.9437075853,
4.25,0.9347432256,
4.75,0.9257706404,
5.25,0.917155385,
5.75,0.9084118009,
6.25,0.8990465999,
6.75,0.8906003833,
7.25,0.8822777271,
7.75,0.8733699322,
8.25,0.8656617999,
8.75,0.8570171595,
9.25,0.849773705,
9.75,0.8414068818,
10.25,0.8330494761,
10.75,0.8258834481,
11.25,0.8176431656,
11.75,0.8103376031,
12.25,0.8027177453,
12.75,0.7954521179,
13.25,0.7874364853,
13.75,0.7799631357,
14.25,0.7727042437,
14.75,0.7656939626,
15.25,0.7585412264,
15.75,0.751660049,
16.25,0.7450091243,
16.75,0.7379056811,
17.25,0.7313470244,
17.75,0.7240447402,
18.25,0.7169172764,
18.75,0.709967196,
19.25,0.7036394477,
19.75,0.6977037191,
20.25,0.6932273507,
20.75,0.6899852157,
21.25,0.6847849488,
21.75,0.6786333919,
22.25,0.6712113619,
22.75,0.661621213,
23.25,0.6534193158,
23.75,0.647490561,
24.25,0.6416273117,
24.75,0.6359955668,
25.25,0.6301345825,
25.75,0.6230921149,
26.25,0.6173335314,
26.75,0.6112923026,
27.25,0.6053483486,
27.75,0.6003215313,
28.25,0.5947149992,
28.75,0.5887032151,
29.25,0.5833418965,
29.75,0.5778979659,
30.25,0.5726812482,
30.75,0.5673507452,
31.25,0.5623112917,
31.75,0.5569241047,
32.25,0.552333653,
32.75,0.5469771028,
33.25,0.5418848991,
33.75,0.5367566943,
34.25,0.5319658518,
34.75,0.5268985629,
35.25,0.5221461654,
35.75,0.5170600414,
36.25,0.5125145912,
36.75,0.5078326464,
37.25,0.5033004284,
37.75,0.4986114204,
38.25,0.4938731194,
38.75,0.489526391,
39.25,0.4851726294,
39.75,0.4804938734,
40.25,0.4764151275,
40.75,0.4720829725,
41.25,0.4679913223,
41.75,0.4635204077,
42.25,0.459507525,
42.75,0.4551441669,
43.25,0.4510341287,
43.75,0.4471268654,
44.25,0.4428013265,
44.75,0.4390683472,
45.25,0.4351223707,
45.75,0.4312602878,
46.25,0.4272859991,
46.75,0.4233958721,
47.25,0.4194599688,
47.75,0.4157473445,
48.25,0.4122779667,
48.75,0.408300817,
49.25,0.4045940042,
49.75,0.4007512629,
50.25,0.3974868059,
50.75,0.3939330876,
51.25,0.390165627,
51.75,0.3869635761,
52.25,0.3834272027,
52.75,0.380181849,
53.25,0.3765617013,
53.75,0.3734382391,
54.25,0.3702691197,
54.75,0.3667666614,
55.25,0.3637388349,
55.75,0.3604855835,
56.25,0.3571585715,
56.75,0.3539355993,
57.25,0.3509477675,
57.75,0.3478322029,
58.25,0.3448391557,
58.75,0.3418065906,
59.25,0.3388971984,
59.75,0.3363894224,
60.25,0.3332107961,
60.75,0.3303238153,
61.25,0.3277111053,
61.75,0.3245759308,
62.25,0.3219993711,
62.75,0.3189512193,
63.25,0.3161552548,
63.75,0.3134385049,
64.25,0.3112018406,
64.75,0.3082532585,
65.25,0.3056783974,
65.75,0.3029961586,
66.25,0.3006587029,
66.75,0.297976464,
67.25,0.2956120372,
67.75,0.2928592563,
68.25,0.2906624377,
68.75,0.2881495953,
69.25,0.2858377695,
69.75,0.2834238708,
70.25,0.2809506953,
70.75,0.278639704,
71.25,0.2763377428,
71.75,0.274102807,
72.25,0.2717660666,
72.75,0.2695479393,
73.25,0.2671564817,
73.75,0.2652269304,
74.25,0.2629297972,
74.75,0.2610978782,
75.25,0.2586234212,
75.75,0.2565689981,
76.25,0.2546014786,
76.75,0.2526365221,
77.25,0.2503891885,
77.75,0.2483120859,
78.25,0.2464921623,
78.75,0.2444697022,
79.25,0.2425923645,
79.75,0.240399152,
80.25,0.2387999445,
80.75,0.2368920892,
81.25,0.2347859442,
81.75,0.2330119759,
82.25,0.2312144488,
82.75,0.2293427289,
83.25,0.2276933789,
83.75,0.2259293497,
84.25,0.2241175622,
84.75,0.222127825,
85.25,0.2205118835,
85.75,0.2187395543,
86.25,0.2172864377,
86.75,0.2157117277,
87.25,0.2139859051,
87.75,0.2122461498,
88.25,0.2107103467,
88.75,0.209133327,
89.25,0.2076395005,
89.75,0.2059221566,
90.25,0.2047311515,
90.75,0.2030203789,
91.25,0.2014444321,
91.75,0.1999865323,
92.25,0.1986822039,
92.75,0.197146222,
93.25,0.1957496703,
93.75,0.1941271424,
94.25,0.1927592754,
94.75,0.1913712174,
95.25,0.1900734752,
95.75,0.1884377003,
96.25,0.1873003691,
96.75,0.1858606786,
97.25,0.1846282482,
97.75,0.183363378,
98.25,0.1820689142,
98.75,0.1808711588,
99.25,0.1795720458,
99.75,0.1780230105,
100.25,0.1770224273,
100.75,0.1758575588,
101.25,0.1745428294,
101.75,0.1734714955,
102.25,0.1721528769,
102.75,0.1709313691,
103.25,0.1699443758,
103.75,0.168704316,
104.25,0.1677139848,
104.75,0.1666680872,
105.25,0.1655483097,
105.75,0.1645116806,
106.25,0.1634709984,
106.75,0.162679255,
107.25,0.1615295708,
107.75,0.1605757922,
108.25,0.1594203413,
108.75,0.1584566385,
109.25,0.1576108187,
109.75,0.1562211215,
110.25,0.1553934515,
110.75,0.1541992873,
111.25,0.1529869735,
111.75,0.1521098763,
112.25,0.1511926353,
112.75,0.1502512544,
113.25,0.1492468417,
113.75,0.1483066678,
114.25,0.1474360973,
114.75,0.1465382129,
115.25,0.1456994414,
115.75,0.1447815448,
116.25,0.1440420449,
116.75,0.1431560665,
117.25,0.1423267573,
117.75,0.1415128857,
118.25,0.1408476382,
118.75,0.1400980502,
119.25,0.139342472,
119.75,0.1387488246,
120.25,0.1381482035,
120.75,0.1373748332,
121.25,0.1365811527,
121.75,0.1360857338,
122.25,0.1351226121,
122.75,0.1341100335,
123.25,0.1332223564,
123.75,0.1323095709,
124.25,0.1314849257,
124.75,0.1306205094,
125.25,0.1300903857,
125.75,0.1291790605,
126.25,0.1285767555,
126.75,0.1279558986,
127.25,0.1271822006,
127.75,0.1264583468,
128.25,0.1259392649,
128.75,0.1253422946,
129.25,0.1244247034,
129.75,0.1240371838,
130.25,0.1233143806,
130.75,0.1227423698,
131.25,0.1222237274,
131.75,0.121495232,
132.25,0.1210208312,
132.75,0.1203630939,
133.25,0.1199668273,
133.75,0.1195374131,
134.25,0.1187848523,
134.75,0.118443951,
135.25,0.117742978,
135.75,0.1173627302,
136.25,0.1164676845,
136.75,0.1158274114,
137.25,0.1153737754,
137.75,0.1148545444,
138.25,0.1143359989,
138.75,0.1139834598,
139.25,0.1132862195,
139.75,0.1128396913,
140.25,0.1122390032,
140.75,0.1117195487,
141.25,0.1111743376,
141.75,0.1107328832,
142.25,0.1102886349,
142.75,0.1098273769,
143.25,0.1094081029,
143.75,0.1089872643,
144.25,0.1084918603,
144.75,0.1081196889,
145.25,0.1074694172,
145.75,0.1072591096,
146.25,0.1067665964,
146.75,0.1064383015,
147.25,0.105675824,
147.75,0.1053355858,
148.25,0.104987137,
148.75,0.104560025,
149.25,0.1040002033,
149.75,0.103643924,
150.25,0.1032635346,
150.75,0.1029426977,
151.25,0.1023131013,
151.75,0.1021556407,
152.25,0.1018601656,
152.75,0.1014474258,
153.25,0.1009184793,
153.75,0.1007116139,
154.25,0.1003792137,
154.75,0.09979306161,
155.25,0.0995477587,
155.75,0.09914609045,
156.25,0.09890788049,
156.75,0.09869540483,
157.25,0.09861531854,
157.75,0.098340258,
158.25,0.09826056659,
158.75,0.09812615067,
159.25,0.09804899246,
159.75,0.09780538827,
160.25,0.09740820527,
160.75,0.09699993581,
161.25,0.09645872563,
161.75,0.09577025473,
162.25,0.09530929476,
162.75,0.09485406429,
163.25,0.09438374639,
163.75,0.0939906165,
164.25,0.09375717491,
164.75,0.09348019958,
165.25,0.09326917678,
165.75,0.09285333008,
166.25,0.09263113886,
166.75,0.09236253053,
167.25,0.09207745641,
167.75,0.09183532,
168.25,0.09156557173,
168.75,0.09136039764,
169.25,0.09097832441,
169.75,0.09083129466,
170.25,0.09044672549,
170.75,0.09018070996,
171.25,0.08988731354,
171.75,0.08982121944,
172.25,0.08962841332,
172.75,0.08932626992,
173.25,0.08901530504,
173.75,0.08878237009,
174.25,0.08862827718,
174.75,0.08840984851,
175.25,0.0880889222,
175.75,0.08803328127,
176.25,0.08762381226,
176.75,0.08756794035,
177.25,0.08720836788,
177.75,0.08717431873,
178.25,0.08682085574,
178.75,0.08667463064,
179.25,0.08634547144,
179.75,0.08634853363,
180.25,0.08614287525,
180.75,0.08589278907,
181.25,0.08577936143,
181.75,0.08558260649,
182.25,0.08519291878,
182.75,0.08520264924,
183.25,0.0849910751,
183.75,0.08469839394,
184.25,0.0846991241,
184.75,0.08437010646,
185.25,0.08420663327,
185.75,0.08408369124,
186.25,0.08382961154,
186.75,0.08379849792,
187.25,0.08352782577,
187.75,0.08362840116,
188.25,0.0833254084,
188.75,0.08310697228,
189.25,0.08300514519,
189.75,0.08273618668,
190.25,0.08261879534,
190.75,0.08247961104,
191.25,0.08233371377,
191.75,0.08227314055,
192.25,0.08208303154,
192.75,0.0819221735,
193.25,0.08170393854,
193.75,0.0816270262,
194.25,0.08130594343,
194.75,0.08134655654,
195.25,0.08124586195,
195.75,0.08102828264,
196.25,0.08112905174,
196.75,0.08081838489,
197.25,0.08067014813,
197.75,0.08061320335,
198.25,0.08051856607,
198.75,0.08027107269,
199.25,0.08004850149,
199.75,0.08008700609,
200.25,0.08006712049,
200.75,0.0799151212,
201.25,0.07968430221,
201.75,0.07947142422,
202.25,0.07944878936,
202.75,0.07945768535,
203.25,0.07918656617,
203.75,0.07924608886,
204.25,0.07909636945,
204.75,0.07891373336,
205.25,0.07884115726,
205.75,0.07862623036,
206.25,0.07859378308,
206.75,0.07828573138,
207.25,0.07830748707,
207.75,0.07829874754,
208.25,0.07818325609,
208.75,0.0781564191,
209.25,0.0780376792,
209.75,0.07778525352,
210.25,0.07779534906,
210.75,0.07769955695,
211.25,0.07751753926,
211.75,0.07758641988,
212.25,0.07733169198,
212.75,0.07741700858,
213.25,0.07722165436,
213.75,0.07707182318,
214.25,0.07709717751,
214.75,0.0770432651,
215.25,0.07698388398,
215.75,0.07685691118,
216.25,0.07669809461,
216.75,0.07655965537,
217.25,0.07661863416,
217.75,0.0765459463,
218.25,0.07648935914,
218.75,0.07640165836,
219.25,0.07623212039,
219.75,0.07613287866,
220.25,0.07619352639,
220.75,0.07595462352,
221.25,0.07588806003,
221.75,0.0758433342,
222.25,0.07578467578,
222.75,0.07579290867,
223.25,0.0756931752,
223.75,0.07558404654,
224.25,0.07555518299,
224.75,0.07543773949,
225.25,0.07535745949,
225.75,0.07544986904,
226.25,0.07527156174,
226.75,0.07518856972,
227.25,0.07518032193,
227.75,0.0752595216,
228.25,0.07512655854,
228.75,0.07491067052,
229.25,0.07490830123,
229.75,0.07489375025,
230.25,0.07475634664,
230.75,0.07477943599,
231.25,0.07468615472,
231.75,0.07457493991,
232.25,0.07459679246,
232.75,0.07457592338,
233.25,0.07453673333,
233.75,0.07461237162,
234.25,0.07431603968,
234.75,0.07431530207,
235.25,0.07424846292,
235.75,0.07408854365,
236.25,0.0741827786,
236.75,0.07409569621,
237.25,0.07405658811,
237.75,0.07409566641,
238.25,0.07393077016,
238.75,0.07384070754,
239.25,0.07395360619,
239.75,0.07372120768,
240.25,0.07377550751,
240.75,0.07375197858,
241.25,0.07345935702,
241.75,0.07358883321,
242.25,0.07368602604,
242.75,0.07372133434,
243.25,0.07356458157,
243.75,0.07347722352,
244.25,0.07342244685,
244.75,0.07355068624,
245.25,0.0734314844,
245.75,0.07325430959,
246.25,0.07332586497,
246.75,0.07311113924,
247.25,0.07327380031,
247.75,0.0731555298,
248.25,0.0729919672,
248.75,0.07308810949,
249.25,0.07308869064,
249.75,0.0730297938,
250.25,0.0731036067,
250.75,0.07308345288,
251.25,0.07288192213,
251.75,0.07277260721,
252.25,0.07292340696,
252.75,0.07269061357,
253.25,0.07273385674,
253.75,0.07279528677,
254.25,0.07273587584,
254.75,0.07263118774,
255.25,0.07262886316,
255.75,0.0726776123,
256.25,0.07259689271,
256.75,0.07258572429,
257.25,0.07242827863,
257.75,0.0725826025,
258.25,0.07240962237,
258.75,0.07243718207,
259.25,0.07256470621,
259.75,0.07244360447,
260.25,0.07246170938,
260.75,0.07243326306,
261.25,0.07232757658,
261.75,0.07231045514,
262.25,0.07218059152,
262.75,0.07213746011,
263.25,0.07225545496,
263.75,0.07225398719,
264.25,0.07216955721,
264.75,0.07222995907,
265.25,0.07213892788,
265.75,0.07199594378,
266.25,0.0720846802,
266.75,0.07191168517,
267.25,0.07202118635,
267.75,0.07199472189,
268.25,0.07195485383,
268.75,0.07194013149,
269.25,0.07197587192,
269.75,0.07196490467,
270.25,0.07181431353,
270.75,0.07177980244,
271.25,0.07180994749,
271.75,0.07175271958,
272.25,0.07190585136,
272.75,0.07177131623,
273.25,0.07178985327,
273.75,0.07175989449,
274.25,0.07180093974,
274.75,0.07175253332,
275.25,0.07159606367,
275.75,0.07163202763,
276.25,0.07181110978,
276.75,0.07171983272,
277.25,0.07163217664,
277.75,0.07149198651,
278.25,0.07155616581,
278.75,0.07149723172,
279.25,0.07146793604,
279.75,0.0714186877,
280.25,0.07154621929,
280.75,0.07136694342,
281.25,0.07142680138,
281.75,0.07133325934,
282.25,0.07123244554,
282.75,0.071264714,
283.25,0.07144776732,
283.75,0.07128002495,
284.25,0.07138957828,
284.75,0.07128832489,
285.25,0.07123772055,
285.75,0.07134222984,
286.25,0.07111582905,
286.75,0.07115165889,
287.25,0.07116330415,
287.75,0.07121121883,
288.25,0.07128609717,
288.75,0.07125099003,
289.25,0.07123085856,
289.75,0.07113516331,
290.25,0.0711812377,
290.75,0.07105259597,
291.25,0.0710574761,
291.75,0.07109820843,
292.25,0.07099384815,
292.75,0.07119807601,
293.25,0.07092075795,
293.75,0.0711889267,
294.25,0.07105902582,
294.75,0.07092660666,
295.25,0.07084618509,
295.75,0.07086595893,
296.25,0.07094480842,
296.75,0.07090935856,
297.25,0.07093956321,
297.75,0.07068991661,
298.25,0.0708488971,
298.75,0.07091198117,
299.25,0.07065470517,
299.75,0.07082546502,
300.25,0.07095062733,
300.75,0.07091673464,
301.25,0.0707340315,
301.75,0.07069144398,
302.25,0.07085115463,
302.75,0.07081303,
303.25,0.07078600675,
303.75,0.07061605155,
304.25,0.07066170871,
304.75,0.07085791975,
305.25,0.07076592743,
305.75,0.07081464678,
306.25,0.07079786062,
306.75,0.07073704898,
307.25,0.07068005204,
307.75,0.07067700475,
308.25,0.07083436102,
308.75,0.07055392861,
309.25,0.07057902217,
309.75,0.07062500715,
310.25,0.07059159875,
310.75,0.07059580088,
311.25,0.07063368708,
311.75,0.07063896209,
312.25,0.07070572674,
312.75,0.07061754912,
313.25,0.07059759647,
313.75,0.07079331577,
314.25,0.07045953721,
314.75,0.07055834681,
315.25,0.07068002224,
315.75,0.07047192752,
316.25,0.07043722272,
316.75,0.07056324929,
317.25,0.07045981288,
317.75,0.07064288855,
318.25,0.07046242803,
318.75,0.07056535035,
319.25,0.0705724135,
319.75,0.07050167769,
320.25,0.07046556473,
320.75,0.0704247728,
321.25,0.07049123198,
321.75,0.07053806633,
322.25,0.07031479478,
322.75,0.07049896568,
323.25,0.07048501819,
323.75,0.07043676078,
324.25,0.07042218,
324.75,0.07060661167,
325.25,0.07040330768,
325.75,0.07034546882,
326.25,0.07043795288,
326.75,0.0703472048,
327.25,0.07030943781,
327.75,0.07039511949,
328.25,0.0704786554,
328.75,0.07043719292,
329.25,0.07031616569,
329.75,0.07046751678,
330.25,0.07043682784,
330.75,0.07052692026,
331.25,0.07043515146,
331.75,0.07023919374,
332.25,0.07042166591,
332.75,0.07039198279,
333.25,0.07024561614,
333.75,0.07022258639,
334.25,0.07024869323,
334.75,0.07028719038,
335.25,0.07038793713,
335.75,0.07021914423,
336.25,0.07032994926,
336.75,0.07027176023,
337.25,0.07018132508,
337.75,0.07017684728,
338.25,0.07024969906,
338.75,0.07018573582,
339.25,0.07036007941,
339.75,0.07010696828,
340.25,0.070394665,
340.75,0.07024939358,
341.25,0.07034727186,
341.75,0.07034191489,
342.25,0.07024151087,
342.75,0.07025800645,
343.25,0.07017706335,
343.75,0.07023584843,
344.25,0.0703548491,
344.75,0.07017517835,
345.25,0.07010748237,
345.75,0.07012184709,
346.25,0.07032763958,
346.75,0.07028618455,
347.25,0.0700827539,
347.75,0.07016799599,
348.25,0.07020843029,
348.75,0.07019325346,
349.25,0.07019796968,
349.75,0.07004351169,
350.25,0.07009464502,
350.75,0.07013188303,
351.25,0.07007235289,
351.75,0.07013170421,
352.25,0.07029671222,
352.75,0.07031381875,
353.25,0.07022726536,
353.75,0.07005738467,
354.25,0.07023414969,
354.75,0.07010374218,
355.25,0.07027097046,
355.75,0.07011302561,
356.25,0.07013836503,
356.75,0.0701931566,
357.25,0.07019836456,
357.75,0.07016522437,
358.25,0.0701187402,
358.75,0.07000725716,
359.25,0.07017021626,
359.75,0.06993889809,
360.25,0.07011274993,
360.75,0.06999199092,
361.25,0.07008156925,
361.75,0.07015418261,
362.25,0.07004898787,
362.75,0.07013498992,
363.25,0.07008527964,
363.75,0.06996154785,
364.25,0.07008500397,
364.75,0.0700218007,
365.25,0.07006325573,
365.75,0.0701726526,
366.25,0.07002127916,
366.75,0.07008196414,
367.25,0.07008500397,
367.75,0.06998402625,
368.25,0.0699569881,
368.75,0.06999792159,
369.25,0.07001574337,
369.75,0.07013943046,
370.25,0.07002270967,
370.75,0.06992387027,
371.25,0.07003648579,
371.75,0.0700185746,
372.25,0.07007289678,
372.75,0.06995619833,
373.25,0.07010118663,
373.75,0.07006525993,
374.25,0.06997830421,
374.75,0.07000859827,
375.25,0.0700828433,
375.75,0.07001449913,
376.25,0.07005988061,
376.75,0.06997480989,
377.25,0.06997939944,
377.75,0.07000269741,
378.25,0.07019489259,
378.75,0.07019930333,
379.25,0.07019358873,
379.75,0.0701360479,
380.25,0.07029333711,
380.75,0.0702374354,
381.25,0.07017852366,
381.75,0.06996136904,
382.25,0.07007007301,
382.75,0.0698909089,
383.25,0.0699140504,
383.75,0.06985734403,
384.25,0.06997045875,
384.75,0.07017319649,
385.25,0.06993345171,
385.75,0.06995759904,
386.25,0.06989200413,
386.75,0.06985512376,
387.25,0.07007326186,
387.75,0.06990782171,
388.25,0.0699012503,
388.75,0.06993348151,
389.25,0.07004603744,
389.75,0.06991666555,
390.25,0.06980399042,
390.75,0.06990271062,
391.25,0.069932051,
391.75,0.06983685493,
392.25,0.06984816492,
392.75,0.06991742551,
393.25,0.0697965771,
393.75,0.06995203346,
394.25,0.06980849057,
394.75,0.06991329044,
395.25,0.06992375106,
395.75,0.06992676109,
396.25,0.06987792999,
396.75,0.06995294243,
397.25,0.06980727613,
397.75,0.0698132962,
398.25,0.06984676421,
398.75,0.07006684691,
399.25,0.06995628774,
399.75,0.06991377473,
400.25,0.06998043507,
400.75,0.0698209554,
401.25,0.06990030408,
401.75,0.06981402636,
402.25,0.06997837126,
402.75,0.06994844228,
403.25,0.06998274475,
403.75,0.06970195472,
404.25,0.07002875954,
404.75,0.07005833089,
405.25,0.06998579204,
405.75,0.06971134245,
406.25,0.06985101849,
406.75,0.06994078308,
407.25,0.06986263394,
407.75,0.06992575526,
408.25,0.06991028041,
408.75,0.06980159134,
409.25,0.06996423006,
409.75,0.06981940567,
410.25,0.06982441992,
410.75,0.06999679655,
411.25,0.06982140988,
411.75,0.06976334751,
412.25,0.06982691586,
412.75,0.06972678006,
413.25,0.06980179995,
413.75,0.06996477395,
414.25,0.06978301704,
414.75,0.06989376992,
415.25,0.06987331063,
415.75,0.06984248012,
416.25,0.06976933777,
416.75,0.06983749568,
417.25,0.06970131397,
417.75,0.06978225708,
418.25,0.0698755309,
418.75,0.06988923997,
419.25,0.06984579563,
419.75,0.06984876841,
420.25,0.06985737383,
420.75,0.06985196471,
421.25,0.06983362883,
421.75,0.06991368532,
422.25,0.06988443434,
422.75,0.06986497343,
423.25,0.06974054873,
423.75,0.06983435899,
424.25,0.06980447471,
424.75,0.06978253275,
425.25,0.06964794546,
425.75,0.0697503984,
426.25,0.06984892488,
426.75,0.06994525343,
427.25,0.06962950528,
427.75,0.06992086023,
428.25,0.07001245767,
428.75,0.06974568963,
429.25,0.06982025504,
429.75,0.06972499192,
430.25,0.06987489015,
430.75,0.06981949508,
431.25,0.06978450716,
431.75,0.06987874955,
432.25,0.06978298724,
432.75,0.06974349916,
433.25,0.06973778456,
433.75,0.06963737309,
434.25,0.06987893581,
434.75,0.06965906918,
435.25,0.06978681684,
435.75,0.06978933513,
436.25,0.06972900033,
436.75,0.06980131567,
437.25,0.06974960864,
437.75,0.0697535947,
438.25,0.06971106678,
438.75,0.06975392252,
439.25,0.06972204149,
439.75,0.06976228207,
440.25,0.06952825934,
440.75,0.06985542923,
441.25,0.06977930665,
441.75,0.06977474689,
442.25,0.06974240392,
442.75,0.06957380474,
443.25,0.06980936974,
443.75,0.0698287338,
444.25,0.06978505105,
444.75,0.0697253868,
445.25,0.06975337863,
445.75,0.06978347152,
446.25,0.06983035058,
446.75,0.06960725784,
447.25,0.06972018629,
447.75,0.06970356405,
