T4,,
Time (min),Abs,
0.0008333333535,0.4300036132,
0.002499999944,0.4279243052,
0.004166666884,0.4249995649,
0.005833333824,0.4229655266,
0.007500000298,0.4219726324,
0.009166667238,0.4213421643,
0.01083333418,0.4206478894,
0.01250000019,0.4195863605,
0.01416666713,0.4187430143,
0.01583333313,0.4178309143,
0.01750000007,0.4172954261,
0.01916666701,0.4164794385,
0.02083333395,0.4153448939,
0.02249999903,0.4146146178,
0.02416666597,0.4136253595,
0.02583333291,0.4130173624,
0.02749999985,0.412009716,
0.02916666679,0.4111555517,
0.03083333187,0.4106560349,
0.03249999881,0.4093337953,
0.03416666761,0.4086522758,
0.03583333269,0.4078032076,
0.03750000149,0.406814754,
0.03916666657,0.4058350027,
0.04083333537,0.4053722024,
0.04250000045,0.4043182135,
0.04416666552,0.4035460651,
0.04583333433,0.4028531611,
0.0474999994,0.4018575847,
0.04916666821,0.4013924897,
0.05083333328,0.4009111226,
0.05249999836,0.3998659253,
0.05416666716,0.3989395201,
0.05583333224,0.3978804946,
0.05750000104,0.397067517,
0.05916666612,0.3964779973,
0.0608333312,0.395091176,
0.0625,0.3940164745,
0.06416666508,0.3933295608,
0.0658333376,0.3924244344,
0.06750000268,0.3912280798,
0.06916666776,0.3902708292,
0.07083333284,0.3899226487,
0.07250000536,0.3888155818,
0.07416667044,0.3877848089,
0.07583333552,0.3870509565,
0.0775000006,0.3861492574,
0.07916666567,0.3857254088,
0.0808333382,0.3845011294,
0.08250000328,0.3838722408,
0.08416666836,0.3826985955,
0.08583333343,0.3819946051,
0.08749999851,0.3812492788,
0.08916667104,0.3805769384,
0.09083333611,0.3796010315,
0.09250000119,0.3788747787,
0.09416666627,0.3780520558,
0.09583333135,0.3769647479,
0.09750000387,0.3763640821,
0.09916666895,0.3758693635,
0.100833334,0.3744766414,
0.1024999991,0.373886168,
0.1041666642,0.373167485,
0.1058333367,0.3720816076,
0.1075000018,0.3711912036,
0.1091666669,0.3705128431,
0.1108333319,0.369900167,
0.112499997,0.3692872524,
0.1141666695,0.3680492342,
0.1158333346,0.367421329,
0.1174999997,0.366612196,
0.1191666648,0.3658148348,
0.1208333299,0.3647306263,
0.1225000024,0.3642258942,
0.1241666675,0.3632799387,
0.1258333325,0.3625987172,
0.1274999976,0.361623019,
0.1291666627,0.3610610366,
0.1308333427,0.3605043292,
0.1325000077,0.3597202897,
0.1341666728,0.3584676385,
0.1358333379,0.3576180041,
0.137500003,0.3569731414,
0.1391666681,0.3559590578,
0.1408333331,0.3552241027,
0.1424999982,0.3543155491,
0.1441666782,0.3537806571,
0.1458333284,0.352840513,
0.1475000083,0.3519701958,
0.1491666585,0.3515238166,
0.1508333385,0.3505913913,
0.1525000036,0.3497267067,
0.1541666687,0.3486602306,
0.1558333337,0.3481507003,
0.1574999988,0.3472298682,
0.1591666639,0.346762538,
0.1608333439,0.345821172,
0.162499994,0.3448982239,
0.164166674,0.3440670073,
0.1658333242,0.343367219,
0.1675000042,0.3425848782,
0.1691666692,0.3418434262,
0.1708333343,0.3408109546,
0.1724999994,0.3401949108,
0.1741666645,0.3394356072,
0.1758333296,0.3385854363,
0.1775000095,0.3380990922,
0.1791666597,0.3374058008,
0.1808333397,0.3361449838,
0.1824999899,0.3354128897,
0.1841666698,0.3347938061,
0.1858333349,0.3340991735,
0.1875,0.3331326246,
0.1891666651,0.3324871063,
0.1908333302,0.3318460584,
0.1924999952,0.3307824135,
0.1941666752,0.3302265704,
0.1958333254,0.3295651078,
0.1975000054,0.3286577761,
0.1991666555,0.327952534,
0.2008333355,0.3268390298,
0.2025000006,0.3261424899,
0.2041666657,0.3255518675,
0.2058333308,0.3247644603,
0.2074999958,0.3238486052,
0.2091666609,0.3233989477,
0.2108333409,0.3226598203,
0.2124999911,0.3219246864,
0.214166671,0.3212442994,
0.2158333212,0.3203081787,
0.2175000012,0.3197523952,
0.2191666663,0.3188467026,
0.2208333313,0.3180289567,
0.2224999964,0.3171058893,
0.2241666615,0.3163836002,
0.2258333266,0.315516144,
0.2275000066,0.3146745265,
0.2291666567,0.3141451776,
0.2308333367,0.3137658238,
0.2324999869,0.3124707341,
0.2341666669,0.3117986619,
0.2358333319,0.3111231327,
0.237499997,0.3101605475,
0.2391666621,0.3096905649,
0.2408333272,0.3087588251,
0.2424999923,0.3079092801,
0.2441666722,0.3071449995,
0.2458333224,0.3066982031,
0.2475000024,0.3057630658,
0.2491666526,0.3051663339,
0.2508333325,0.3043064177,
0.2524999976,0.3038313687,
0.2541666627,0.3026209176,
0.2558333278,0.3021893203,
0.2574999928,0.3014872968,
0.2591666579,0.3007673919,
0.2608333528,0.2998355925,
0.2624999881,0.2995885611,
0.264166683,0.2987057269,
0.2658333182,0.2979966402,
0.2675000131,0.2969379723,
0.2691666782,0.2963774502,
0.2708333433,0.295758456,
0.2724999785,0.2949902415,
0.2741666734,0.2944853604,
0.2758333385,0.2935811877,
0.2775000036,0.2929322124,
0.2791666687,0.292152226,
0.2808333337,0.2914931476,
0.2824999988,0.2910917103,
0.2841666639,0.2901875973,
0.285833329,0.2892840803,
0.2875000238,0.2885944247,
0.2891666591,0.2879905105,
0.2908333242,0.2872796953,
0.2924999893,0.2866605222,
0.2941666842,0.2859337628,
0.2958333492,0.2851343453,
0.2974999845,0.2843274772,
0.2991666496,0.2838380039,
0.3008333445,0.2830581367,
0.3025000095,0.2824600637,
0.3041666746,0.2815741301,
0.3058333099,0.2810616791,
0.3075000048,0.280215323,
0.3091666698,0.2790445387,
0.3108333349,0.2789402902,
0.3125,0.2781268656,
0.3141666651,0.2771811783,
0.3158333302,0.2768801451,
0.3174999952,0.2760276496,
0.3191666603,0.2754134834,
0.3208333552,0.2747706473,
0.3224999905,0.2739217877,
0.3241666555,0.2733597755,
0.3258333206,0.2723893821,
0.3275000155,0.2716847658,
0.3291666806,0.2711786628,
0.3308333158,0.2707163095,
0.3324999809,0.269918561,
0.3341666758,0.2691665292,
0.3358333409,0.2683835924,
0.337500006,0.2679719031,
0.3391666412,0.2672471702,
0.3408333361,0.2663572431,
0.3425000012,0.2659981251,
0.3441666663,0.2654308975,
0.3458333313,0.2644629776,
0.3474999964,0.2639104724,
0.3491666615,0.2631471753,
0.3508333266,0.262607336,
0.3524999917,0.2619893849,
0.3541666865,0.2611494064,
0.3558333218,0.2604802549,
0.3574999869,0.2599606216,
0.359166652,0.2592044771,
0.3608333468,0.2585202157,
0.3625000119,0.257919848,
0.3641666472,0.257235527,
0.3658333123,0.2566614449,
0.3675000072,0.2561129332,
0.3691666722,0.255251199,
0.3708333373,0.2547741532,
0.3724999726,0.2539065182,
0.3741666675,0.2535651326,
0.3758333325,0.2528760433,
0.3774999976,0.2520810366,
0.3791666925,0.2514058352,
0.3808333278,0.2508172989,
0.3824999928,0.2502401769,
0.3841666579,0.2497088015,
0.3858333528,0.2488323003,
0.3875000179,0.2484131604,
0.3891666532,0.2476101816,
0.3908333182,0.2469779551,
0.3925000131,0.2466119081,
0.3941666782,0.2458453327,
0.3958333433,0.2451476604,
0.3974999785,0.24476327,
0.3991666734,0.2439898401,
0.4008333385,0.243443653,
0.4025000036,0.2425999641,
0.4041666687,0.2424001247,
0.4058333337,0.2414955795,
0.4074999988,0.2410487384,
0.4091666639,0.2403530478,
0.410833329,0.239670217,
0.4125000238,0.2391203642,
0.4141666591,0.2383495122,
0.4158333242,0.2379105091,
0.4174999893,0.2371993065,
0.4191666842,0.2366606593,
0.4208333492,0.2360717207,
0.4224999845,0.2353509367,
0.4241666496,0.2347745299,
0.4258333445,0.2343730479,
0.4275000095,0.2334758788,
0.4291666746,0.2327965349,
0.4308333099,0.2325063944,
0.4325000048,0.2319162488,
0.4341666698,0.2312045693,
0.4358333349,0.230548501,
0.4375,0.2298885435,
0.4391666651,0.2295195609,
0.4408333302,0.2288091183,
0.4424999952,0.2281486392,
0.4441666603,0.2275225669,
0.4458333552,0.2269949913,
0.4474999905,0.2266494036,
0.4491666555,0.2260899097,
0.4508333206,0.2252201438,
0.4525000155,0.2248865217,
0.4541666806,0.2239171863,
0.4558333158,0.2234936655,
0.4574999809,0.2230525911,
0.4591666758,0.2222290784,
0.4608333409,0.2217041403,
0.462500006,0.2211005837,
0.4641666412,0.2205138654,
0.4658333361,0.2198788375,
0.4675000012,0.2195053548,
0.4691666663,0.2188350409,
0.4708333313,0.2183724791,
0.4724999964,0.217527926,
0.4741666615,0.2170091867,
0.4758333266,0.2164053023,
0.4774999917,0.2161310911,
0.4791666865,0.2152986228,
0.4808333218,0.2144815326,
0.4824999869,0.2141879201,
0.484166652,0.2136729956,
0.4858333468,0.2132484615,
0.4875000119,0.2125249803,
0.4891666472,0.2119534761,
0.4908333123,0.2114730626,
0.4925000072,0.210703373,
0.4941666722,0.2102580816,
0.4958333373,0.2099888921,
0.4974999726,0.2091046721,
0.4991666675,0.2088002712,
0.5008333325,0.2080644369,
0.5024999976,0.2072734237,
0.5041666627,0.2072039247,
0.5058333278,0.206490472,
0.5074999928,0.2060136199,
0.5091666579,0.2055492848,
0.510833323,0.2046796829,
0.5124999881,0.2043143511,
0.5141666532,0.2034847289,
0.5158333182,0.2030321062,
0.5174999833,0.2025702894,
0.5191666484,0.2021858692,
0.5208333731,0.2014839798,
0.5224999785,0.201126188,
0.5241666436,0.2004621476,
0.5258333087,0.1997805834,
0.5275000334,0.199058339,
0.5291666985,0.1986494809,
0.5308333039,0.198187083,
0.532499969,0.1976957023,
0.5341666937,0.1968157589,
0.5358332992,0.1965752989,
0.5375000238,0.1959053725,
0.5391666293,0.1955529898,
0.540833354,0.195073396,
0.5425000191,0.1945177019,
0.5441666245,0.1940165311,
0.5458333492,0.1933164448,
0.5475000143,0.1927596033,
0.5491666794,0.1921399385,
0.5508333445,0.191926077,
0.5524999499,0.1911093891,
0.5541666746,0.1905947179,
0.5558333397,0.1900535077,
0.5575000048,0.1895047128,
0.5591666698,0.1891742945,
0.5608333349,0.1886555851,
0.5625,0.1881126016,
0.5641666651,0.1874671876,
0.5658333302,0.1866990626,
0.5674999952,0.1865124553,
0.5691666603,0.1858341545,
0.5708333254,0.1853766143,
0.5724999905,0.1849365979,
0.5741667151,0.1841433048,
0.5758333206,0.1835525036,
0.5774999857,0.1832254827,
0.5791666508,0.1826091707,
0.5808333158,0.1821696609,
0.5825000405,0.1816548854,
0.584166646,0.181274578,
0.5858333111,0.1807808429,
0.5875000358,0.1801682562,
0.5891666412,0.1797807962,
0.5908333659,0.1793330759,
0.5924999714,0.1790186167,
0.5941666365,0.1780799925,
0.5958333611,0.1776054204,
0.5974999666,0.1772869527,
0.5991666913,0.1766057611,
0.6008333564,0.1761880219,
0.6024999619,0.1755875349,
0.6041666865,0.1751085073,
0.605833292,0.1746081114,
0.6075000167,0.1740978509,
0.6091666818,0.173834905,
0.6108332872,0.1732203066,
0.6125000119,0.1725883633,
0.614166677,0.1724771708,
0.6158333421,0.1718963832,
0.6175000072,0.1713339835,
0.6191666126,0.1707001328,
0.6208333373,0.1703463793,
0.6225000024,0.1696017236,
0.6241666675,0.1693427563,
0.6258333325,0.1689358205,
0.6274999976,0.1684094816,
0.6291666627,0.1680410057,
0.6308333278,0.1677586287,
0.6325000525,0.1670938432,
0.6341666579,0.1664092541,
0.635833323,0.1662291884,
0.6374999881,0.1659383029,
0.6391666532,0.1652237326,
0.6408333778,0.1649565697,
0.6424999833,0.164260298,
0.6441666484,0.1642606109,
0.6458333731,0.1639234573,
0.6474999785,0.1631957889,
0.6491667032,0.1629109979,
0.6508333087,0.1625009477,
0.6524999738,0.1620172262,
0.6541666985,0.1615598798,
0.6558333039,0.1610233784,
0.6575000286,0.160775423,
0.6591666937,0.1603923291,
0.6608332992,0.1597244292,
0.6625000238,0.1591274887,
0.6641666293,0.1591780782,
0.665833354,0.1586770415,
0.6675000191,0.1581452489,
0.6691666245,0.1577090323,
0.6708333492,0.1575482041,
0.6725000143,0.1567263156,
0.6741666794,0.1563711911,
0.6758333445,0.1560861617,
0.6774999499,0.1557581574,
0.6791666746,0.1553194076,
0.6808333397,0.1545748562,
0.6825000048,0.1544454247,
0.6841666698,0.1540248394,
0.6858333349,0.1534926146,
0.6875,0.1530477256,
0.6891666651,0.1526293308,
0.6908333302,0.1523686647,
0.6924999952,0.151859358,
0.6941666603,0.1513218731,
0.6958333254,0.1509536058,
0.6974999905,0.150424704,
0.6991667151,0.1500084549,
0.7008333206,0.1499194354,
0.7024999857,0.1492831707,
0.7041666508,0.1489613205,
0.7058333158,0.1482023746,
0.7075000405,0.1478264481,
0.709166646,0.1474408954,
0.7108333111,0.1471015215,
0.7125000358,0.1467719078,
0.7141666412,0.1464317888,
0.7158333659,0.1459225565,
0.7174999714,0.1454654038,
0.7191666365,0.1452147514,
0.7208333611,0.1446647942,
0.7224999666,0.1442263126,
0.7241666913,0.1438046843,
0.7258333564,0.1434526443,
0.7274999619,0.1429666132,
0.7291666865,0.1425198466,
0.730833292,0.1421409845,
0.7325000167,0.1416280419,
0.7341666818,0.1412560791,
0.7358332872,0.1409577429,
0.7375000119,0.1406297237,
0.739166677,0.1398669034,
0.7408333421,0.1395142227,
0.7425000072,0.1391401142,
0.7441666126,0.1388699859,
0.7458333373,0.1384795457,
0.7475000024,0.1379671991,
0.7491666675,0.1372673064,
0.7508333325,0.1369870901,
0.7524999976,0.136394918,
0.7541666627,0.1360396743,
0.7558333278,0.1358851343,
0.7575000525,0.1352658421,
0.7591666579,0.1349564642,
0.760833323,0.1346455514,
0.7624999881,0.1342056394,
0.7641666532,0.1337817609,
0.7658333778,0.1331761032,
0.7674999833,0.1330757588,
0.7691666484,0.132675603,
0.7708333731,0.1323469281,
0.7724999785,0.1319573373,
0.7741667032,0.1317670792,
0.7758333087,0.1314880848,
0.7774999738,0.131032005,
0.7791666985,0.1308310032,
0.7808333039,0.1305083781,
0.7825000286,0.1302584112,
0.7841666937,0.1301828772,
0.7858332992,0.1298676729,
0.7875000238,0.129583925,
0.7891666293,0.1293209344,
0.790833354,0.1289723516,
0.7925000191,0.12853688,
0.7941666245,0.1282970905,
0.7958333492,0.1280433834,
0.7975000143,0.1277311593,
0.7991666794,0.1275046617,
0.8008333445,0.1266751885,
0.8024999499,0.12661843,
0.8041666746,0.1264641583,
0.8058333397,0.1261590868,
0.8075000048,0.1259852648,
0.8091666698,0.125544861,
0.8108333349,0.1252134889,
0.8125,0.1245876551,
0.8141666651,0.1246156991,
0.8158333302,0.1243156791,
0.8174999952,0.1238250658,
0.8191666603,0.1234998927,
0.8208333254,0.1229404882,
0.8224999905,0.1227763668,
0.8241667151,0.1224157065,
0.8258333206,0.1218364537,
0.8274999857,0.1215089262,
0.8291666508,0.1212223396,
0.8308333158,0.1208028644,
0.8325000405,0.1201957762,
0.834166646,0.1200260296,
0.8358333111,0.1196606234,
0.8375000358,0.1192643493,
0.8391666412,0.118866466,
0.8408333659,0.1182737648,
0.8424999714,0.1178314909,
0.8441666365,0.1175418198,
0.8458333611,0.1168311238,
0.8474999666,0.1163970456,
0.8491666913,0.1161769629,
0.8508333564,0.1152869835,
0.8524999619,0.1149071231,
0.8541666865,0.114246048,
0.855833292,0.1140385866,
0.8575000167,0.1133826971,
0.8591666818,0.1129521504,
0.8608332872,0.1124646142,
0.8625000119,0.1119824126,
0.864166677,0.1115256473,
0.8658333421,0.111277774,
0.8675000072,0.1104677394,
0.8691666126,0.1102786288,
0.8708333373,0.1099682748,
0.8725000024,0.1094664186,
0.8741666675,0.1089579239,
0.8758333325,0.1088308245,
0.8774999976,0.1086978465,
0.8791666627,0.1082853749,
0.8808333278,0.1078315154,
0.8825000525,0.1076972112,
0.8841666579,0.1073295027,
0.885833323,0.1070556268,
0.8874999881,0.1066865027,
0.8891666532,0.1060238332,
0.8908333778,0.1059479713,
0.8924999833,0.1058075204,
0.8941666484,0.105433017,
0.8958333731,0.1049821973,
0.8974999785,0.1047818512,
0.8991667032,0.1041676477,
0.9008333087,0.1038814187,
0.9024999738,0.1037520245,
0.9041666985,0.1033067107,
0.9058333039,0.1031339914,
0.9075000286,0.1026458964,
0.9091666937,0.1025681347,
0.9108332992,0.1023250595,
0.9125000238,0.1018519178,
0.9141666293,0.1015093252,
0.915833354,0.1012694314,
0.9175000191,0.1010154486,
0.9191666245,0.100787513,
0.9208333492,0.1004242599,
0.9225000143,0.1002687886,
0.9241666794,0.09991903603,
0.9258333445,0.09949124604,
0.9274999499,0.09926507622,
0.9291666746,0.09905909747,
0.9308333397,0.09886113554,
0.9325000048,0.09849735349,
0.9341666698,0.09811784327,
0.9358333349,0.09791058302,
0.9375,0.09766153991,
0.9391666651,0.09738565981,
0.9408333302,0.09723234177,
0.9424999952,0.09680663794,
0.9441666603,0.09651054442,
0.9458333254,0.09630052745,
0.9474999905,0.09600365162,
0.9491667151,0.09570797533,
0.9508333206,0.09534095228,
0.9524999857,0.09514307231,
0.9541666508,0.09485306591,
0.9558333158,0.09460918605,
0.9575000405,0.09427425265,
0.959166646,0.09410267323,
0.9608333111,0.09361897409,
0.9625000358,0.09357254207,
0.9641666412,0.09317738563,
0.9658333659,0.09291058779,
0.9674999714,0.09259349108,
0.9691666365,0.09242571145,
0.9708333611,0.09233656526,
0.9724999666,0.09161351621,
0.9741666913,0.09160607308,
0.9758333564,0.09140004218,
0.9774999619,0.09114206582,
0.9791666865,0.09075210989,
0.980833292,0.09047289938,
0.9825000167,0.09021922946,
0.9841666818,0.09022524953,
0.9858332872,0.08983268589,
0.9875000119,0.08952663839,
0.989166677,0.08926115185,
0.9908333421,0.08891862631,
0.9925000072,0.08889070153,
0.9941666126,0.08843044192,
0.9958333373,0.08836337179,
0.9975000024,0.08811235428,
0.9991666675,0.08786167949,
1.000833392,0.08737113327,
1.002500057,0.08707861602,
1.004166722,0.08699995279,
1.005833387,0.08658573776,
1.007500052,0.08629700541,
1.009166718,0.08613353223,
1.010833383,0.08588651568,
1.012500048,0.08570106328,
1.014166713,0.08548555523,
1.015833378,0.08509884775,
1.017500043,0.08501736075,
1.019166708,0.08461865038,
1.020833373,0.08437686414,
1.022500038,0.08424629271,
1.024166703,0.08399388194,
1.025833368,0.08344051987,
1.027500033,0.08341956139,
1.029166698,0.08313524723,
1.030833364,0.08306822926,
1.032500029,0.08262276649,
1.034166694,0.08238008618,
1.035833359,0.08214298636,
1.037500024,0.08209253848,
1.039166689,0.0816019401,
1.040833473,0.08158813417,
1.042500019,0.08110509068,
1.044166684,0.08094203472,
1.045833349,0.08076687902,
1.047500014,0.08061204851,
1.049166799,0.08024267852,
1.050833344,0.08002158254,
1.05250001,0.07972442359,
1.054166794,0.07955712825,
1.05583334,0.07945283502,
1.057500124,0.07917787135,
1.05916667,0.07881474495,
1.060833335,0.07872518152,
1.062500119,0.07847905159,
1.064166665,0.07826524228,
1.065833449,0.07796061039,
1.067500114,0.07773915678,
1.06916666,0.07760161906,
1.070833325,0.07750268281,
1.07250011,0.07715384662,
1.074166775,0.07685799152,
1.07583344,0.07668466121,
1.077499986,0.07668635994,
1.079166651,0.07639076561,
1.080833435,0.07601543516,
1.0825001,0.07579676062,
1.084166765,0.07560413331,
1.085833311,0.07550571114,
1.087499976,0.07523683459,
1.08916676,0.0749482885,
1.090833426,0.0748039782,
1.092500091,0.07459454983,
1.094166756,0.07417279482,
1.095833302,0.07427927107,
1.097500086,0.07400458306,
1.099166751,0.0737350136,
1.100833416,0.07343120873,
1.102500081,0.07335044444,
1.104166627,0.07313295454,
1.105833411,0.07296936959,
1.107500076,0.07248321176,
1.109166741,0.07257865369,
1.110833406,0.07241509855,
1.112499952,0.07212786376,
1.114166737,0.07186984271,
1.115833402,0.07186271995,
1.117500067,0.07176718861,
1.119166732,0.07138191909,
1.120833397,0.07111396641,
1.122500062,0.07102058083,
1.124166727,0.07078701258,
1.125833392,0.0706807524,
1.127500057,0.07039396465,
1.129166722,0.07015564293,
1.130833387,0.07002846152,
1.132500052,0.06988023967,
1.134166718,0.06967469305,
1.135833383,0.06950620562,
1.137500048,0.06942200661,
1.139166832,0.06920880824,
1.140833378,0.0688437596,
1.142500043,0.06886462867,
1.144166708,0.06860998273,
1.145833373,0.06852646917,
1.147500157,0.06827112287,
1.149166703,0.06817374378,
1.150833368,0.06788679212,
1.152500033,0.06773088872,
1.154166698,0.06745399535,
1.155833483,0.06746294349,
1.157500029,0.06708271056,
1.159166694,0.06683231145,
1.160833359,0.06671958417,
1.162500024,0.06664180756,
1.164166808,0.06647691131,
1.165833473,0.06604847312,
1.167500019,0.06608503312,
1.169166684,0.06602228433,
1.170833349,0.06565989554,
1.172500134,0.06556253135,
1.174166799,0.06533418596,
1.175833344,0.06528644264,
1.17750001,0.06502480805,
1.179166675,0.06497249752,
1.180833459,0.06471042335,
1.182500124,0.06460915506,
1.18416667,0.06423101574,
1.185833335,0.06401411444,
1.1875,0.06401078403,
1.189166784,0.06373520195,
1.190833449,0.06359669566,
1.192500114,0.0634450838,
1.19416666,0.06310214102,
1.195833325,0.06336261332,
1.19750011,0.06300253421,
1.199166775,0.06269791722,
1.20083344,0.062600106,
1.202499986,0.06253758818,
1.204166651,0.0623941198,
1.205833435,0.06210540235,
1.2075001,0.0619196184,
1.209166765,0.06171663851,
1.210833311,0.06166618317,
1.212499976,0.06143764406,
1.21416676,0.06113472581,
1.215833426,0.06101298332,
1.217500091,0.06104673818,
1.219166756,0.06057947874,
1.220833302,0.06052981317,
1.222500086,0.06053082272,
1.224166751,0.0601574108,
1.225833416,0.06012491509,
1.227500081,0.06010229141,
1.229166627,0.0597335808,
1.230833411,0.05984483287,
1.232500076,0.05927331373,
1.234166741,0.05944401398,
1.235833406,0.05934696272,
