T1,,
Time (min),Abs,
0.0008333333535,0.6233463287,
0.002499999944,0.6212968826,
0.004166666884,0.6194335222,
0.005833333824,0.6170642376,
0.007500000298,0.614823699,
0.009166667238,0.612550199,
0.01083333418,0.6105875373,
0.01250000019,0.6095184088,
0.01416666713,0.6061874628,
0.01583333313,0.6043303609,
0.01750000007,0.6018531322,
0.01916666701,0.5996572971,
0.02083333395,0.597415626,
0.02249999903,0.5955893993,
0.02416666597,0.5931025743,
0.02583333291,0.5920615196,
0.02749999985,0.5898175836,
0.02916666679,0.5877382159,
0.03083333187,0.5861985087,
0.03249999881,0.5840511918,
0.03416666761,0.5812860727,
0.03583333269,0.5795278549,
0.03750000149,0.5771198273,
0.03916666657,0.5756778717,
0.04083333537,0.5737692714,
0.04250000045,0.5714128017,
0.04416666552,0.5693716407,
0.04583333433,0.5674651861,
0.0474999994,0.5657848716,
0.04916666821,0.5635057688,
0.05083333328,0.561678946,
0.05249999836,0.560026288,
0.05416666716,0.5574268699,
0.05583333224,0.5558254719,
0.05750000104,0.5539734364,
0.05916666612,0.5520835519,
0.0608333312,0.5499902368,
0.0625,0.5480189323,
0.06416666508,0.5462360978,
0.0658333376,0.5443773866,
0.06750000268,0.5419187546,
0.06916666776,0.53992939,
0.07083333284,0.5384590626,
0.07250000536,0.5371994972,
0.07416667044,0.5346857905,
0.07583333552,0.5323560834,
0.0775000006,0.5306737423,
0.07916666567,0.5289971232,
0.0808333382,0.5271968842,
0.08250000328,0.5252387524,
0.08416666836,0.5237275958,
0.08583333343,0.5213578343,
0.08749999851,0.519538939,
0.08916667104,0.5176938176,
0.09083333611,0.5162801147,
0.09250000119,0.5144158006,
0.09416666627,0.5126288533,
0.09583333135,0.510091126,
0.09750000387,0.5088081956,
0.09916666895,0.5067135692,
0.100833334,0.5045469999,
0.1024999991,0.5028447509,
0.1041666642,0.5012375116,
0.1058333367,0.4994688928,
0.1075000018,0.4976192713,
0.1091666669,0.4955875874,
0.1108333319,0.4939599335,
0.112499997,0.4921878576,
0.1141666695,0.4903702438,
0.1158333346,0.4881929755,
0.1174999997,0.4865699112,
0.1191666648,0.4845689237,
0.1208333299,0.4820726514,
0.1225000024,0.4810259938,
0.1241666675,0.479265511,
0.1258333325,0.4773988426,
0.1274999976,0.4757502973,
0.1291666627,0.4731615484,
0.1308333427,0.4721684158,
0.1325000077,0.4704495668,
0.1341666728,0.4685355723,
0.1358333379,0.46671924,
0.137500003,0.4652290046,
0.1391666681,0.4633040428,
0.1408333331,0.4620011151,
0.1424999982,0.4594986737,
0.1441666782,0.4580116272,
0.1458333284,0.4562076628,
0.1475000083,0.4544311464,
0.1491666585,0.4525498748,
0.1508333385,0.4511933029,
0.1525000036,0.4497615993,
0.1541666687,0.4472295642,
0.1558333337,0.4454471767,
0.1574999988,0.4438718259,
0.1591666639,0.4420633018,
0.1608333439,0.4407362938,
0.162499994,0.4388153553,
0.164166674,0.4372448623,
0.1658333242,0.4354919195,
0.1675000042,0.4336901009,
0.1691666692,0.4322356284,
0.1708333343,0.4304910004,
0.1724999994,0.4283989668,
0.1741666645,0.4272544682,
0.1758333296,0.4254932702,
0.1775000095,0.4235075712,
0.1791666597,0.4222976565,
0.1808333397,0.4202554226,
0.1824999899,0.4184677601,
0.1841666698,0.4172016978,
0.1858333349,0.4151899517,
0.1875,0.4134643972,
0.1891666651,0.4117912948,
0.1908333302,0.4104519188,
0.1924999952,0.4088180363,
0.1941666752,0.4071893394,
0.1958333254,0.4053396285,
0.1975000054,0.4040762484,
0.1991666555,0.4022876024,
0.2008333355,0.4007246196,
0.2025000006,0.3989578784,
0.2041666657,0.3970647156,
0.2058333308,0.395724237,
0.2074999958,0.3937295079,
0.2091666609,0.3922557533,
0.2108333409,0.3907933831,
0.2124999911,0.3893537819,
0.214166671,0.387699306,
0.2158333212,0.3860103786,
0.2175000012,0.3846021295,
0.2191666663,0.3828851879,
0.2208333313,0.3811691999,
0.2224999964,0.3796510994,
0.2241666615,0.3784350157,
0.2258333266,0.3767386973,
0.2275000066,0.3752367496,
0.2291666567,0.3736104071,
0.2308333367,0.3724856377,
0.2324999869,0.3707008958,
0.2341666669,0.3692046404,
0.2358333319,0.3674166501,
0.237499997,0.3657413125,
0.2391666621,0.3643985391,
0.2408333272,0.3631052077,
0.2424999923,0.3612704277,
0.2441666722,0.360093087,
0.2458333224,0.3581876159,
0.2475000024,0.357301861,
0.2491666526,0.3551485538,
0.2508333325,0.3540691137,
0.2524999976,0.3522774577,
0.2541666627,0.3509698808,
0.2558333278,0.3493620753,
0.2574999928,0.3479967713,
0.2591666579,0.3466047049,
0.2608333528,0.3451015353,
0.2624999881,0.3437360227,
0.264166683,0.3421640694,
0.2658333182,0.340462178,
0.2675000131,0.3390756845,
0.2691666782,0.3381935954,
0.2708333433,0.336715579,
0.2724999785,0.3349128067,
0.2741666734,0.3334569633,
0.2758333385,0.3321140707,
0.2775000036,0.330771178,
0.2791666687,0.3293373883,
0.2808333337,0.3277772069,
0.2824999988,0.3263817132,
0.2841666639,0.3252137601,
0.285833329,0.3234727085,
0.2875000238,0.3223354518,
0.2891666591,0.3211995065,
0.2908333242,0.3192766309,
0.2924999893,0.3184799254,
0.2941666842,0.3166953325,
0.2958333492,0.3154633641,
0.2974999845,0.3140053153,
0.2991666496,0.3126578331,
0.3008333445,0.3113932014,
0.3025000095,0.3098450005,
0.3041666746,0.3085565865,
0.3058333099,0.3073240519,
0.3075000048,0.3059665561,
0.3091666698,0.3043667972,
0.3108333349,0.3032265007,
0.3125,0.3015841246,
0.3141666651,0.3003688455,
0.3158333302,0.2990095317,
0.3174999952,0.2979699373,
0.3191666603,0.2965434492,
0.3208333552,0.2950091064,
0.3224999905,0.2935971916,
0.3241666555,0.2925964594,
0.3258333206,0.2913892865,
0.3275000155,0.2898940742,
0.3291666806,0.2884888351,
0.3308333158,0.2874218225,
0.3324999809,0.286270082,
0.3341666758,0.2849063575,
0.3358333409,0.2837075889,
0.337500006,0.2820919752,
0.3391666412,0.2810943723,
0.3408333361,0.2798841,
0.3425000012,0.2786482871,
0.3441666663,0.2772302628,
0.3458333313,0.2761432827,
0.3474999964,0.2746593952,
0.3491666615,0.2735334933,
0.3508333266,0.2719956636,
0.3524999917,0.2709816098,
0.3541666865,0.2696190476,
0.3558333218,0.2687059939,
0.3574999869,0.2674927711,
0.359166652,0.2661500275,
0.3608333468,0.2648149133,
0.3625000119,0.2638802528,
0.3641666472,0.2625723481,
0.3658333123,0.2612520456,
0.3675000072,0.2599029243,
0.3691666722,0.259031713,
0.3708333373,0.25792858,
0.3724999726,0.2566652,
0.3741666675,0.255394429,
0.3758333325,0.2542888224,
0.3774999976,0.2531113029,
0.3791666925,0.2516468465,
0.3808333278,0.2508813441,
0.3824999928,0.2494802773,
0.3841666579,0.2484629303,
0.3858333528,0.2471458912,
0.3875000179,0.2463110089,
0.3891666532,0.244873032,
0.3908333182,0.2437928021,
0.3925000131,0.2426906228,
0.3941666782,0.2414735407,
0.3958333433,0.2404109091,
0.3974999785,0.2396159172,
0.3991666734,0.238120392,
0.4008333385,0.2369423509,
0.4025000036,0.2360506356,
0.4041666687,0.2349528372,
0.4058333337,0.2335523218,
0.4074999988,0.2326264083,
0.4091666639,0.2316180021,
0.410833329,0.2304587662,
0.4125000238,0.2295264155,
0.4141666591,0.2282207906,
0.4158333242,0.2270266861,
0.4174999893,0.2261705548,
0.4191666842,0.2253144681,
0.4208333492,0.224152863,
0.4224999845,0.2227235734,
0.4241666496,0.2219272554,
0.4258333445,0.2208002806,
0.4275000095,0.2197080702,
0.4291666746,0.2190181166,
0.4308333099,0.2177020758,
0.4325000048,0.2169288546,
0.4341666698,0.2157401443,
0.4358333349,0.2146639526,
0.4375,0.213496089,
0.4391666651,0.2126713544,
0.4408333302,0.2117204964,
0.4424999952,0.2106157541,
0.4441666603,0.2094444484,
0.4458333552,0.2089583576,
0.4474999905,0.2077264786,
0.4491666555,0.2068211287,
0.4508333206,0.2058511227,
0.4525000155,0.2050297558,
0.4541666806,0.2035480887,
0.4558333158,0.2025102973,
0.4574999809,0.2015744448,
0.4591666758,0.2008223981,
0.4608333409,0.199963972,
0.462500006,0.1988452673,
0.4641666412,0.1978734583,
0.4658333361,0.1970489919,
0.4675000012,0.1961163133,
0.4691666663,0.1948758811,
0.4708333313,0.1941767633,
0.4724999964,0.1932854205,
0.4741666615,0.1922552139,
0.4758333266,0.1912924051,
0.4774999917,0.1903687865,
0.4791666865,0.1893735826,
0.4808333218,0.1886446029,
0.4824999869,0.1875612736,
0.484166652,0.1868903637,
0.4858333468,0.1856851876,
0.4875000119,0.1849811524,
0.4891666472,0.1838357449,
0.4908333123,0.1831742823,
0.4925000072,0.1823861301,
0.4941666722,0.1814034879,
0.4958333373,0.1802562624,
0.4974999726,0.1798322052,
0.4991666675,0.1786203086,
0.5008333325,0.177740097,
0.5024999976,0.1771688461,
0.5041666627,0.1760631353,
0.5058333278,0.1752221882,
0.5074999928,0.1741893739,
0.5091666579,0.1738669723,
0.510833323,0.1726781577,
0.5124999881,0.1720167249,
0.5141666532,0.1711254865,
0.5158333182,0.1700209826,
0.5174999833,0.1695252657,
0.5191666484,0.1685352772,
0.5208333731,0.1678004563,
0.5224999785,0.1667571962,
0.5241666436,0.166066274,
0.5258333087,0.1654020548,
0.5275000334,0.1646835953,
0.5291666985,0.1637122333,
0.5308333039,0.1627367139,
0.532499969,0.1622335017,
0.5341666937,0.1612654924,
0.5358332992,0.1606898159,
0.5375000238,0.1597779691,
0.5391666293,0.1588294953,
0.540833354,0.1582641155,
0.5425000191,0.1576127261,
0.5441666245,0.1565558612,
0.5458333492,0.1559226364,
0.5475000143,0.155026421,
0.5491666794,0.1543751806,
0.5508333445,0.1539815813,
0.5524999499,0.1527472436,
0.5541666746,0.152243346,
0.5558333397,0.1512985826,
0.5575000048,0.1505073905,
0.5591666698,0.1499647945,
0.5608333349,0.1491525769,
0.5625,0.1485257298,
0.5641666651,0.1478336155,
0.5658333302,0.1470173299,
0.5674999952,0.1460014135,
0.5691666603,0.1453967988,
0.5708333254,0.144651711,
0.5724999905,0.1439199746,
0.5741667151,0.14335455,
0.5758333206,0.1425580531,
0.5774999857,0.1418174654,
0.5791666508,0.1412671953,
0.5808333158,0.1404191554,
0.5825000405,0.1398114264,
0.584166646,0.1392022669,
0.5858333111,0.1385065466,
0.5875000358,0.1377224773,
0.5891666412,0.1371487975,
0.5908333659,0.1366629153,
0.5924999714,0.1357749701,
0.5941666365,0.1351780891,
0.5958333611,0.1342661232,
0.5974999666,0.1338657439,
0.5991666913,0.1331089884,
0.6008333564,0.1323209852,
0.6024999619,0.1317064613,
0.6041666865,0.131000787,
0.605833292,0.1305328161,
0.6075000167,0.1297375262,
0.6091666818,0.1294350326,
0.6108332872,0.1287652403,
0.6125000119,0.1280522943,
0.614166677,0.1272671521,
0.6158333421,0.1265477836,
0.6175000072,0.1260689348,
0.6191666126,0.12551561,
0.6208333373,0.1250619441,
0.6225000024,0.1242587119,
0.6241666675,0.1238843873,
0.6258333325,0.1231394559,
0.6274999976,0.1223856509,
0.6291666627,0.1218828186,
0.6308333278,0.1213349774,
0.6325000525,0.1207318977,
0.6341666579,0.1200122759,
0.635833323,0.1194211543,
0.6374999881,0.1190800518,
0.6391666532,0.1182394773,
0.6408333778,0.1176228598,
0.6424999833,0.1171434745,
0.6441666484,0.116574049,
0.6458333731,0.1160423234,
0.6474999785,0.1155636683,
0.6491667032,0.1148993,
0.6508333087,0.1143139079,
0.6524999738,0.1135957614,
0.6541666985,0.1130934581,
0.6558333039,0.1124875918,
0.6575000286,0.1120961979,
0.6591666937,0.1115224361,
0.6608332992,0.1108385175,
0.6625000238,0.1101718247,
0.6641666293,0.1100510061,
0.665833354,0.109239623,
0.6675000191,0.1086174995,
0.6691666245,0.1080693528,
0.6708333492,0.1077547371,
0.6725000143,0.1070820615,
0.6741666794,0.1066928878,
0.6758333445,0.1062183753,
0.6774999499,0.1056089029,
0.6791666746,0.1053679511,
0.6808333397,0.104460679,
0.6825000048,0.104125008,
0.6841666698,0.1036779657,
0.6858333349,0.1031913012,
0.6875,0.102530174,
0.6891666651,0.1020637527,
0.6908333302,0.1016026363,
0.6924999952,0.1010219157,
0.6941666603,0.1004252061,
0.6958333254,0.1001931056,
0.6974999905,0.09941411018,
0.6991667151,0.0992634818,
0.7008333206,0.09857750684,
0.7024999857,0.09819276631,
0.7041666508,0.09761282802,
0.7058333158,0.0972802043,
0.7075000405,0.09667619318,
0.709166646,0.09613735229,
0.7108333111,0.0958243832,
0.7125000358,0.09548138082,
0.7141666412,0.09478985518,
0.7158333659,0.09442277253,
0.7174999714,0.09412376583,
0.7191666365,0.09351298213,
0.7208333611,0.09290183336,
0.7224999666,0.0926790759,
0.7241666913,0.09235116839,
0.7258333564,0.09158734232,
0.7274999619,0.09136004001,
0.7291666865,0.09066040069,
0.730833292,0.09032773226,
0.7325000167,0.09005214274,
0.7341666818,0.08931583911,
0.7358332872,0.08921378106,
0.7375000119,0.08871590346,
0.739166677,0.08825490624,
0.7408333421,0.08791336417,
0.7425000072,0.08742023259,
0.7441666126,0.08705542982,
0.7458333373,0.08672371507,
0.7475000024,0.08606705815,
0.7491666675,0.08580551296,
0.7508333325,0.08516199142,
0.7524999976,0.08501827717,
0.7541666627,0.08483080566,
0.7558333278,0.08380913734,
0.7575000525,0.0838560462,
0.7591666579,0.08337307721,
0.760833323,0.08297365159,
0.7624999881,0.08250502497,
0.7641666532,0.08225105703,
0.7658333778,0.08167781681,
0.7674999833,0.08115217835,
0.7691666484,0.08088187128,
0.7708333731,0.08083868027,
0.7724999785,0.0804290548,
0.7741667032,0.0798265785,
0.7758333087,0.07943411916,
0.7774999738,0.07914155722,
0.7791666985,0.07862942666,
0.7808333039,0.07820935547,
0.7825000286,0.07788088173,
0.7841666937,0.07764829695,
0.7858332992,0.07714648545,
0.7875000238,0.07685580105,
0.7891666293,0.07656623423,
0.790833354,0.07629870623,
0.7925000191,0.07573065162,
0.7941666245,0.07528916746,
0.7958333492,0.07509972155,
0.7975000143,0.07465206087,
0.7991666794,0.07448360324,
0.8008333445,0.07401745021,
0.8024999499,0.07381907105,
0.8041666746,0.07336221635,
0.8058333397,0.07293856144,
0.8075000048,0.07280018181,
0.8091666698,0.07232439518,
0.8108333349,0.0721013993,
0.8125,0.07154231519,
0.8141666651,0.07139983028,
0.8158333302,0.07121887058,
0.8174999952,0.07068635523,
0.8191666603,0.0703246817,
0.8208333254,0.0700416863,
0.8224999905,0.06968049705,
0.8241667151,0.06949393451,
0.8258333206,0.0689702034,
0.8274999857,0.06880520284,
0.8291666508,0.06840085238,
0.8308333158,0.06816865504,
0.8325000405,0.06783951819,
0.834166646,0.06744513661,
0.8358333111,0.06718812138,
0.8375000358,0.06677217036,
0.8391666412,0.06663227081,
0.8408333659,0.06629706174,
0.8424999714,0.0659853369,
0.8441666365,0.06581671536,
0.8458333611,0.06535377353,
0.8474999666,0.06497787684,
0.8491666913,0.06458307803,
0.8508333564,0.06437518448,
0.8524999619,0.06404104829,
0.8541666865,0.06384897977,
0.855833292,0.06364740431,
0.8575000167,0.06317719072,
0.8591666818,0.06290369481,
0.8608332872,0.0626558736,
0.8625000119,0.06253734976,
0.864166677,0.06192009524,
0.8658333421,0.06171535328,
0.8675000072,0.06161519885,
0.8691666126,0.06128398329,
0.8708333373,0.06086495146,
0.8725000024,0.06070687622,
0.8741666675,0.06054281443,
0.8758333325,0.06014735997,
0.8774999976,0.05980897322,
0.8791666627,0.05979649723,
0.8808333278,0.05909558758,
0.8825000525,0.05909229442,
0.8841666579,0.05877828971,
0.885833323,0.0583040528,
0.8874999881,0.05815646425,
0.8891666532,0.05803425238,
0.8908333778,0.05776039511,
0.8924999833,0.05741390586,
0.8941666484,0.0572630167,
0.8958333731,0.05681609735,
0.8974999785,0.05657284707,
0.8991667032,0.05640816316,
0.9008333087,0.05601739511,
0.9024999738,0.05614993721,
0.9041666985,0.05569695309,
0.9058333039,0.05547388643,
0.9075000286,0.05509177223,
0.9091666937,0.05501904711,
0.9108332992,0.05473856628,
0.9125000238,0.05425237864,
0.9141666293,0.05433803424,
0.915833354,0.05386237428,
0.9175000191,0.05367577821,
0.9191666245,0.05356460065,
0.9208333492,0.0532043539,
0.9225000143,0.05301692709,
0.9241666794,0.05286975205,
0.9258333445,0.05244228244,
0.9274999499,0.05206799135,
0.9291666746,0.05210514367,
0.9308333397,0.05181184039,
0.9325000048,0.05156825483,
0.9341666698,0.05127615854,
0.9358333349,0.05111676082,
0.9375,0.05081955343,
0.9391666651,0.05074579269,
0.9408333302,0.0503904596,
0.9424999952,0.05054084212,
0.9441666603,0.05026242509,
0.9458333254,0.04980252683,
0.9474999905,0.04948626086,
0.9491667151,0.04942464456,
0.9508333206,0.04935007915,
0.9524999857,0.04898215085,
0.9541666508,0.0488040708,
0.9558333158,0.04844687879,
0.9575000405,0.04849996045,
0.959166646,0.04824613407,
0.9608333111,0.0478756167,
0.9625000358,0.04761048406,
0.9641666412,0.04751707986,
0.9658333659,0.04712156206,
0.9674999714,0.04698303342,
0.9691666365,0.0467584841,
0.9708333611,0.04674828053,
0.9724999666,0.04653883725,
0.9741666913,0.04629418999,
0.9758333564,0.0459511131,
0.9774999619,0.04577602446,
0.9791666865,0.04546296224,
0.980833292,0.04538608342,
0.9825000167,0.04537573829,
0.9841666818,0.04519352689,
0.9858332872,0.04487887397,
0.9875000119,0.04456748813,
0.989166677,0.04464055225,
0.9908333421,0.04431061819,
0.9925000072,0.04402496293,
0.9941666126,0.04394369572,
0.9958333373,0.04366186261,
0.9975000024,0.04362096265,
0.9991666675,0.0433258079,
1.000833392,0.04326935112,
1.002500057,0.04309365153,
1.004166722,0.04266421124,
1.005833387,0.04271556437,
1.007500052,0.04241885245,
1.009166718,0.04241662845,
1.010833383,0.04237604141,
1.012500048,0.04189562425,
1.014166713,0.04170751572,
1.015833378,0.04151675478,
1.017500043,0.04149254411,
1.019166708,0.04115215689,
1.020833373,0.04103987291,
1.022500038,0.0411378704,
1.024166703,0.04067053273,
1.025833368,0.04054277018,
1.027500033,0.04021672904,
1.029166698,0.04044394195,
1.030833364,0.04012186453,
1.032500029,0.03985182941,
1.034166694,0.03994686529,
1.035833359,0.03963403404,
1.037500024,0.03953180835,
1.039166689,0.03939636052,
1.040833473,0.03914026171,
1.042500019,0.03912148252,
1.044166684,0.0388565436,
1.045833349,0.03888652474,
1.047500014,0.03866892681,
1.049166799,0.03835802898,
1.050833344,0.03838746622,
1.05250001,0.03802777454,
1.054166794,0.03788853064,
1.05583334,0.03775206953,
1.057500124,0.03769909963,
1.05916667,0.03748491779,
1.060833335,0.03746629134,
1.062500119,0.03734124824,
1.064166665,0.03719271719,
1.065833449,0.03692698106,
1.067500114,0.03679769486,
1.06916666,0.03663915396,
1.070833325,0.0363079235,
1.07250011,0.03609552607,
1.074166775,0.03605721518,
1.07583344,0.03613290936,
1.077499986,0.03597348928,
1.079166651,0.03583619371,
1.080833435,0.03556732461,
1.0825001,0.03545009717,
1.084166765,0.03520341963,
1.085833311,0.03494343907,
1.087499976,0.03486253694,
1.08916676,0.03472461179,
1.090833426,0.03462504968,
1.092500091,0.03455471992,
1.094166756,0.03439890221,
1.095833302,0.03432563692,
1.097500086,0.03417922556,
1.099166751,0.03381387889,
1.100833416,0.03391714394,
1.102500081,0.03390228376,
1.104166627,0.03380148485,
1.105833411,0.03345384449,
1.107500076,0.03345543891,
1.109166741,0.0331495367,
1.110833406,0.03318002075,
1.112499952,0.03272247314,
1.114166737,0.03301578388,
1.115833402,0.0326920487,
1.117500067,0.03259035945,
1.119166732,0.03243789449,
1.120833397,0.03247544169,
1.122500062,0.03238900006,
1.124166727,0.03223086149,
1.125833392,0.03198477998,
1.127500057,0.03193067014,
1.129166722,0.03198937699,
1.130833387,0.03192348033,
1.132500052,0.03160712868,
1.134166718,0.03138897195,
1.135833383,0.03153873235,
1.137500048,0.0312872529,
1.139166832,0.03121445514,
1.140833378,0.03095012531,
1.142500043,0.03085709549,
1.144166708,0.031131519,
1.145833373,0.0306043718,
1.147500157,0.03066745587,
1.149166703,0.03069557063,
1.150833368,0.03046826459,
1.152500033,0.03023358248,
1.154166698,0.03015996329,
1.155833483,0.03013224341,
1.157500029,0.02996008657,
1.159166694,0.02993864939,
1.160833359,0.02957371995,
1.162500024,0.02966578305,
1.164166808,0.02945987321,
1.165833473,0.02940433286,
1.167500019,0.029361872,
1.169166684,0.02923080511,
1.170833349,0.02918968908,
1.172500134,0.02908845432,
1.174166799,0.02885850146,
1.175833344,0.0285438206,
1.17750001,0.02850310318,
1.179166675,0.02866641432,
1.180833459,0.02831517905,
1.182500124,0.0282324627,
1.18416667,0.02816697024,
1.185833335,0.0281347651,
1.1875,0.02824575081,
1.189166784,0.02775023878,
1.190833449,0.02793167904,
1.192500114,0.02774488553,
1.19416666,0.0275662262,
1.195833325,0.02766332589,
1.19750011,0.02737757564,
1.199166775,0.02744372189,
1.20083344,0.02725482173,
1.202499986,0.02707363665,
1.204166651,0.02676611021,
1.205833435,0.02686848491,
1.2075001,0.02687410265,
1.209166765,0.02670015022,
1.210833311,0.02665368654,
1.212499976,0.02646185644,
1.21416676,0.02640251629,
1.215833426,0.02636884712,
1.217500091,0.02620202489,
1.219166756,0.02610574663,
1.220833302,0.02603414096,
1.222500086,0.0259330906,
1.224166751,0.02574775741,
1.225833416,0.02556390502,
1.227500081,0.02556154318,
1.229166627,0.02553123422,
