Baseline 100%T,,Baseline 0%T,,Stock_nm,Stock_abs,2x_nm,2x_abs,4x_nm,Fluro_UV_4x_abs,6x_nm,6x_abs,
Wavelength (nm),%T,Wavelength (nm),%T,Wavelength (nm),Abs,Wavelength (nm),Abs,Wavelength (nm),Abs,Wavelength (nm),Abs,
698.9988403,92.41201782,698.9988403,-0.003774724668,698.9988403,0.004543738905,698.9988403,0.001478324062,698.9988403,-7.392403495E-005,698.9988403,0.004764596466,
697.991333,92.16745758,697.991333,0.01465692371,697.991333,0.004057233222,697.991333,0.001044303761,697.991333,-0.0004988466389,697.991333,0.004294993356,
696.9835205,92.04109192,696.9835205,-0.02168256789,696.9835205,0.004166204482,696.9835205,0.001627805526,696.9835205,0.0001750244119,696.9835205,0.004557472188,
696.0114136,91.89852142,696.0114136,-0.03497538343,696.0114136,0.004316404928,696.0114136,0.001462584012,696.0114136,0.0002965991443,696.0114136,0.004652675241,
695.0029297,91.66497803,695.0029297,-0.017594276,695.0029297,0.003942359705,695.0029297,0.001451129909,695.0029297,-0.0001232514915,695.0029297,0.004820868839,
693.9941406,91.48146057,693.9941406,-0.01186521072,693.9941406,0.003658766858,693.9941406,0.001411133911,693.9941406,-0.0002621457388,693.9941406,0.004052373115,
692.9850464,91.44893646,692.9850464,-0.003056608373,692.9850464,0.00501471106,692.9850464,0.001775362995,692.9850464,0.0003020648437,692.9850464,0.004714873619,
692.0117188,91.1648407,692.0117188,0.05024179071,692.0117188,0.004131654743,692.0117188,0.0008108319598,692.0117188,-0.0008583582821,692.0117188,0.003896099748,
691.0018921,91.09693909,691.0018921,0.0505162105,691.0018921,0.004556791857,691.0018921,0.001070382539,691.0018921,-0.0003234541218,691.0018921,0.004425833467,
689.9918213,90.99732208,689.9918213,0.03147821873,689.9918213,0.004179168027,689.9918213,0.001155739999,689.9918213,-0.0004611465847,689.9918213,0.004129537847,
689.0174561,90.87413788,689.0174561,-0.003293048125,689.0174561,0.004140148405,689.0174561,0.000741592783,689.0174561,-0.0004741273588,689.0174561,0.004871494137,
688.0067139,90.73149109,688.0067139,-0.01930626109,688.0067139,0.004684597719,688.0067139,0.001185589237,688.0067139,-0.0004324944166,688.0067139,0.003681948874,
686.9957275,90.62875366,686.9957275,-0.05159626156,686.9957275,0.004018746782,686.9957275,0.001377166249,686.9957275,-0.0006251619197,686.9957275,0.003632297274,
685.984314,90.57524109,685.984314,0.02532195114,685.984314,0.00471694069,685.984314,0.001143593225,685.984314,-0.0006492522662,685.984314,0.004357558209,
685.008728,90.38323975,685.008728,0.1055797338,685.008728,0.004135835916,685.008728,0.0007354214322,685.008728,-0.000572944351,685.008728,0.003505662084,
683.9967041,90.46411133,683.9967041,-0.01259168331,683.9967041,0.004205096047,683.9967041,0.0006847833865,683.9967041,-0.0002523148723,683.9967041,0.004040301777,
682.984436,90.36911774,682.984436,-0.08646778762,682.984436,0.004221144598,682.984436,0.001054735156,682.984436,-0.0006351394113,682.984436,0.004304770846,
682.0079346,90.34230804,682.0079346,0.04875390604,682.0079346,0.004395238124,682.0079346,0.001070174971,682.0079346,-0.000625316985,682.0079346,0.004282418638,
680.9949341,90.23007965,680.9949341,-0.002801669762,680.9949341,0.004107273184,680.9949341,0.001133912476,680.9949341,-0.0003638042836,680.9949341,0.003973550163,
680.0178833,90.2370224,680.0178833,0.01051524747,680.0178833,0.004503561649,680.0178833,0.001669900259,680.0178833,0.0003227885172,680.0178833,0.004661048297,
679.0042114,90.24035645,679.0042114,-0.04797441512,679.0042114,0.004783597309,679.0042114,0.001848640735,679.0042114,0.0002307829418,679.0042114,0.00444458425,
677.9903564,90.21025085,677.9903564,0.05533389747,677.9903564,0.005261458922,677.9903564,0.0009853532538,677.9903564,0.0003971428669,677.9903564,0.004340719897,
677.0123291,90.18591309,677.0123291,-0.01248049922,677.0123291,0.005075730383,677.0123291,0.001628299244,677.0123291,-0.0004358562292,677.0123291,0.00416568201,
675.9978027,90.0531311,675.9978027,0.05190522596,675.9978027,0.004959565587,675.9978027,0.001262973179,675.9978027,-0.0003872884263,675.9978027,0.004120731261,
674.9829102,90.10561371,674.9829102,0.07159087062,674.9829102,0.00482353894,674.9829102,0.00175672723,674.9829102,-8.034261555E-005,674.9829102,0.003697403939,
674.0039673,90.06778717,674.0039673,0.05916422978,674.0039673,0.005288316403,674.0039673,0.001858779462,674.0039673,-0.0004751099332,674.0039673,0.004459831398,
672.9885254,89.89121246,672.9885254,0.0552655831,672.9885254,0.003821823047,672.9885254,0.00132274034,672.9885254,-0.0007753687678,672.9885254,0.003274332732,
672.0089111,90.04743958,672.0089111,-0.01252975781,672.0089111,0.004375861958,672.0089111,0.001646487857,672.0089111,-0.0002044510184,672.0089111,0.0044274549,
670.9928589,89.92060089,670.9928589,0.03343464807,670.9928589,0.004518601578,670.9928589,0.0009535980062,670.9928589,-0.0003805640445,670.9928589,0.004423192237,
670.0126343,89.97613525,670.0126343,0.1016928926,670.0126343,0.004731412511,670.0126343,0.002089095768,670.0126343,0.0003556116717,670.0126343,0.00457732752,
668.9959717,89.91319275,668.9959717,-0.03020417877,668.9959717,0.004241324496,668.9959717,0.001171572832,668.9959717,-0.0004996223142,668.9959717,0.004806577694,
668.0151978,89.81744385,668.0151978,-0.01787949167,668.0151978,0.004147648811,668.0151978,0.00011676141,668.0151978,-0.0009132280247,668.0151978,0.003538204823,
666.9978638,90.12166595,666.9978638,-0.006006006151,666.9978638,0.005054490641,666.9978638,0.002478339709,666.9978638,0.0004024543741,666.9978638,0.005173116922,
666.0165405,90.009758,666.0165405,0.05089820549,666.0165405,0.004509708378,666.0165405,0.001018797397,666.0165405,-0.0006009151111,666.0165405,0.003972087521,
664.9985352,90.15751648,664.9985352,0.04999852926,664.9985352,0.004461792763,664.9985352,0.001264349092,664.9985352,-0.0006513200351,664.9985352,0.004345871042,
664.0166016,90.32496643,664.0166016,0.06881720573,664.0166016,0.00487508066,664.0166016,0.002353185555,664.0166016,-0.0003465265909,664.0166016,0.005240184255,
662.9979858,90.28956604,662.9979858,0.1055614203,662.9979858,0.005100768991,662.9979858,0.001053645276,662.9979858,-0.0004253052175,662.9979858,0.004953753203,
662.0155029,90.32875061,662.0155029,0.0026760865,662.0155029,0.004869216587,662.0155029,0.001364156371,662.0155029,-0.0005653438275,662.0155029,0.00447262032,
660.9962769,90.34124756,660.9962769,0.1479873657,660.9962769,0.004829847254,660.9962769,0.001286079409,660.9962769,-0.0005306486855,660.9962769,0.00461544469,
660.0131226,90.45482635,660.0131226,-0.004582951311,660.0131226,0.004820057657,660.0131226,0.0023762458,660.0131226,-3.370222475E-005,660.0131226,0.005084661301,
658.9933472,90.35853577,658.9933472,0.05752636492,658.9933472,0.004492916632,658.9933472,0.001266400097,658.9933472,-0.0006909160875,658.9933472,0.004525820725,
658.0097046,90.38393402,658.0097046,0.05137545988,658.0097046,0.004658771679,658.0097046,0.001351432526,658.0097046,-0.0003716152278,658.0097046,0.004427637905,
656.9891968,90.36292267,656.9891968,0.07450453937,656.9891968,0.00440805126,656.9891968,0.001237090444,656.9891968,-0.0001532696624,656.9891968,0.004479394294,
656.0049438,90.47927856,656.0049438,0.01858439855,656.0049438,0.005137805827,656.0049438,0.002027376555,656.0049438,-2.950990392E-006,656.0049438,0.004708750173,
654.9838867,90.56809235,654.9838867,-0.02142876387,654.9838867,0.005354746245,654.9838867,0.002314433688,654.9838867,0.0001287500054,654.9838867,0.004923486616,
653.9990234,90.53504181,653.9990234,0.07334166765,653.9990234,0.005526122171,653.9990234,0.00166579464,653.9990234,0.0001843213104,653.9990234,0.004550880287,
653.013855,90.47149658,653.013855,0.06727907807,653.013855,0.005322119687,653.013855,0.0007635302609,653.013855,-0.0001611361367,653.013855,0.004619473591,
651.9918823,90.45411682,651.9918823,0.02039775625,651.9918823,0.004971426912,651.9918823,0.001463181339,651.9918823,-0.0002038817911,651.9918823,0.004199815914,
651.0061646,90.5426178,651.0061646,0.007562008221,651.0061646,0.004925607238,651.0061646,0.001629546401,651.0061646,0.0001871440909,651.0061646,0.004202455748,
649.9835205,90.51986694,649.9835205,0.04964335263,649.9835205,0.005190642551,649.9835205,0.00124098442,649.9835205,-0.0001470074203,649.9835205,0.004148641601,
648.9972534,90.5355835,648.9972534,0.03271359205,648.9972534,0.005051033571,648.9972534,0.001639602007,648.9972534,-0.0005175144761,648.9972534,0.00543796178,
648.0106812,90.47247314,648.0106812,0.06060256436,648.0106812,0.005094456952,648.0106812,0.001412640209,648.0106812,-0.0008507110761,648.0106812,0.0047092475,
646.9871216,90.46923828,646.9871216,0.02472459525,646.9871216,0.004664580338,646.9871216,0.001145617687,646.9871216,-0.0005820957595,646.9871216,0.004312849138,
646,90.59719086,646,0.03265039623,646,0.005359752104,646,0.00178352464,646,0.0002667332592,646,0.005229441915,
645.0125122,90.53953552,645.0125122,-0.00834306702,645.0125122,0.004981481936,645.0125122,0.001619387069,645.0125122,-0.0002612661337,645.0125122,0.004125043284,
643.9881592,90.53027344,643.9881592,0.04618812352,643.9881592,0.005153862759,643.9881592,0.001637445414,643.9881592,-0.0002978970879,643.9881592,0.004589805845,
643.0001221,90.42230225,643.0001221,0.03209523484,643.0001221,0.004901495297,643.0001221,0.0002720949706,643.0001221,-0.001135013066,643.0001221,0.004043489695,
642.0117188,90.57465363,642.0117188,-0.05890385434,642.0117188,0.005637534428,642.0117188,0.001785240136,642.0117188,-6.00550311E-006,642.0117188,0.005142939743,
640.9865112,90.60939789,640.9865112,-0.03471665829,640.9865112,0.005617316347,640.9865112,0.001676058979,640.9865112,-0.0001563748665,640.9865112,0.00468509458,
639.9976196,90.6053772,639.9976196,0,639.9976196,0.005658803042,639.9976196,0.001810245682,639.9976196,-0.0001124340924,639.9976196,0.005091758911,
639.0083618,90.55942535,639.0083618,-0.01264126599,639.0083618,0.005730587989,639.0083618,0.001821267302,639.0083618,-0.0008003809489,639.0083618,0.004817780107,
637.9823608,90.6301651,637.9823608,0.06029848009,637.9823608,0.005940923002,637.9823608,0.002229628852,637.9823608,-0.0001268227206,637.9823608,0.005026626401,
636.9925537,90.57974243,636.9925537,0.1037711427,636.9925537,0.005515897647,636.9925537,0.00192486879,636.9925537,-0.0003780811385,636.9925537,0.004591820296,
636.0024414,90.5552597,636.0024414,0.04335469007,636.0024414,0.005630480591,636.0024414,0.001524041058,636.0024414,-0.0005763050285,636.0024414,0.004302992951,
635.012146,90.66929626,635.012146,0.06512536854,635.012146,0.005845437292,635.012146,0.002248207107,635.012146,0.0002518658293,635.012146,0.005155617837,
633.9848633,90.58475494,633.9848633,-0.01621571556,633.9848633,0.005293347407,633.9848633,0.00136267615,633.9848633,-0.0001639307739,633.9848633,0.004464696161,
632.9939575,90.61321259,632.9939575,-0.03411077335,632.9939575,0.005446638446,632.9939575,0.00227170391,632.9939575,-0.0001059124697,632.9939575,0.004357427824,
632.0028076,90.78887939,632.0028076,0.05985818058,632.0028076,0.006843763404,632.0028076,0.002933263546,632.0028076,0.0002622781612,632.0028076,0.005850081332,
631.0113525,90.64289856,631.0113525,0.08921025693,631.0113525,0.005874193739,631.0113525,0.001535289339,631.0113525,-7.501105574E-005,631.0113525,0.004930791445,
629.9828491,90.55525208,629.9828491,0.008762322366,629.9828491,0.005561569706,629.9828491,0.001031122287,629.9828491,-0.0006438759738,629.9828491,0.004459020682,
628.9909058,90.68283081,628.9909058,-0.01676375605,628.9909058,0.006240768824,628.9909058,0.002063892083,628.9909058,0.0002950708149,628.9909058,0.005405984353,
627.9985352,90.64736176,627.9985352,-0.0362158455,627.9985352,0.005939191207,627.9985352,0.001885947073,627.9985352,-0.0005172559177,627.9985352,0.004895447753,
627.0059814,90.76250458,627.0059814,0.02958142385,627.0059814,0.006475234404,627.0059814,0.002422421938,627.0059814,0.0003632802691,627.0059814,0.005568203516,
626.0131836,90.70029449,626.0131836,-0.003739855718,626.0131836,0.00618323544,626.0131836,0.002222785959,626.0131836,0.0002503376745,626.0131836,0.005011830945,
624.9832764,90.70041656,624.9832764,-0.004066197667,624.9832764,0.006225327495,624.9832764,0.002533613471,624.9832764,0.0002502340649,624.9832764,0.005408448167,
623.9898682,90.60752106,623.9898682,-0.002126754494,623.9898682,0.005953860935,623.9898682,0.001471856493,623.9898682,-0.0003150732373,623.9898682,0.004823826719,
622.9961548,90.53056335,622.9961548,0.07410798222,622.9961548,0.005885318853,622.9961548,0.001598289586,622.9961548,-0.0004313565732,622.9961548,0.004974700045,
622.0022583,90.64471436,622.0022583,-0.02392552793,622.0022583,0.00596010685,622.0022583,0.002098876052,622.0022583,3.378250403E-005,622.0022583,0.005203426816,
621.0079956,90.67081451,621.0079956,-0.008888295852,621.0079956,0.006131118163,621.0079956,0.002077000914,621.0079956,4.061698201E-005,621.0079956,0.005209242925,
620.0135498,90.60194397,620.0135498,0,620.0135498,0.006087433547,620.0135498,0.001569996821,620.0135498,-9.235131438E-005,620.0135498,0.005177963059,
618.9818726,90.57476807,618.9818726,0.05347117037,618.9818726,0.006173914298,618.9818726,0.001374543412,618.9818726,0.0003658710339,618.9818726,0.004720316734,
617.9868164,90.55267334,617.9868164,-0.05931198224,617.9868164,0.005945515819,617.9868164,0.001572075184,617.9868164,-0.0004362182808,617.9868164,0.004906233866,
616.9915771,90.66798401,616.9915771,0,616.9915771,0.006603080314,616.9915771,0.00206001685,616.9915771,-5.21829752E-005,616.9915771,0.005460452754,
615.9959717,90.62367249,615.9959717,0.09749893844,615.9959717,0.006436795928,615.9959717,0.002135241404,615.9959717,-0.00014281529,615.9959717,0.005028642714,
615.000061,90.72816467,615.000061,0.004571637604,615.000061,0.006579557899,615.000061,0.002451967914,615.000061,0.0001923235541,615.000061,0.005210709758,
614.0039673,90.69430542,614.0039673,0.02480363846,614.0039673,0.006767455954,614.0039673,0.001958827488,614.0039673,0.0001673073566,614.0039673,0.005506276153,
613.0075684,90.70069885,613.0075684,0.04469183087,613.0075684,0.006570543628,613.0075684,0.002328851493,613.0075684,0.0001492323645,613.0075684,0.005745906383,
612.0108032,90.61180115,612.0108032,0.02305386961,612.0108032,0.006780418567,612.0108032,0.002016375773,612.0108032,-0.0003311623295,612.0108032,0.005020550918,
611.013855,90.61746216,611.013855,0.01055334695,611.013855,0.006368939299,611.013855,0.002091410803,611.013855,-0.0002685097861,611.013855,0.005213486962,
610.0167236,90.64426422,610.0167236,-0.01352859568,610.0167236,0.006689163856,610.0167236,0.001992164413,610.0167236,-0.0003747188894,610.0167236,0.005448132288,
608.9822998,90.68211365,608.9822998,0.01175917219,608.9822998,0.006663718261,608.9822998,0.002282242989,608.9822998,-9.24548367E-005,608.9822998,0.005398698151,
607.9844971,90.61865997,607.9844971,0.04735894874,607.9844971,0.006598296575,607.9844971,0.001914832508,607.9844971,-0.0002699584875,607.9844971,0.005054831039,
606.9865112,90.64644623,606.9865112,0.04682274163,606.9865112,0.006746212021,606.9865112,0.001832029317,606.9865112,-0.0003778742393,606.9865112,0.004946264904,
605.9881592,90.7041626,605.9881592,-0.003275573952,605.9881592,0.006962458603,605.9881592,0.002136542229,605.9881592,2.213306652E-005,605.9881592,0.005139875226,
604.9896851,90.7064209,604.9896851,0.05115089566,604.9896851,0.007043378428,604.9896851,0.002147650113,604.9896851,0.000340067636,604.9896851,0.005203610286,
603.9908447,90.6410141,603.9908447,0.008041817695,603.9908447,0.00669957418,603.9908447,0.001990266144,603.9908447,-7.402755728E-005,603.9908447,0.005142049398,
602.9918213,90.72580719,602.9918213,-0.02551382035,602.9918213,0.007367576007,602.9918213,0.002206316218,602.9918213,4.540636291E-005,602.9918213,0.005258131772,
601.9923706,90.78005219,601.9923706,-0.003550884081,601.9923706,0.007413417101,601.9923706,0.002442049561,601.9923706,0.0001970369049,601.9923706,0.005746876821,
600.9927979,90.76834106,600.9927979,0.03136872128,600.9927979,0.007177918218,600.9927979,0.002643609652,600.9927979,4.144541163E-005,600.9927979,0.005350055173,
599.9929199,90.80590057,599.9929199,-0.03124132007,599.9929199,0.007896054536,599.9929199,0.002254243707,599.9929199,0.0005553241936,599.9929199,0.005740634166,
598.9927368,90.68340302,598.9927368,0.06801564246,598.9927368,0.006945597939,598.9927368,0.001668211189,598.9927368,-0.0004038403858,598.9927368,0.005146606825,
597.9923096,90.7915802,597.9923096,0.01605239511,597.9923096,0.007070056628,597.9923096,0.002031641779,597.9923096,-6.543479685E-005,597.9923096,0.00543243112,
596.9916382,90.82620239,596.9916382,0.06076844409,596.9916382,0.007156996056,596.9916382,0.00252585439,596.9916382,5.578784476E-005,596.9916382,0.005593716167,
595.9907837,90.82873535,595.9907837,0.02264364623,595.9907837,0.007422922645,595.9907837,0.002318649786,595.9907837,0.0002150621003,595.9907837,0.005240498576,
594.989502,90.88436127,594.989502,-0.01214071084,594.989502,0.00769032957,594.989502,0.002959482139,594.989502,0.0003349382314,594.989502,0.005439219996,
593.9880981,90.81763458,593.9880981,-0.003210478928,593.9880981,0.00733669335,593.9880981,0.002261425601,593.9880981,-6.854063395E-005,593.9880981,0.005197375081,
592.9863892,90.82913971,592.9863892,0.03117530979,592.9863892,0.00713094417,592.9863892,0.002278547734,592.9863892,8.450001769E-005,592.9863892,0.005344185047,
591.984375,90.83926392,591.984375,0.02818092145,591.984375,0.007487889379,591.984375,0.002492033876,591.984375,0.000266655552,591.984375,0.005189227872,
590.9821777,90.89067841,590.9821777,0.03322872519,590.9821777,0.007624226622,590.9821777,0.002663715975,590.9821777,0.0002111772919,590.9821777,0.00523858564,
590.0167847,90.88869476,590.0167847,0.03694374487,590.0167847,0.007391299121,590.0167847,0.002420157194,590.0167847,-0.0002078663383,590.0167847,0.005074027926,
589.0140381,90.96389771,589.0140381,0.02323188633,589.0140381,0.007974274457,589.0140381,0.002850318095,589.0140381,3.109015961E-005,589.0140381,0.005205496214,
588.0109863,90.90168762,588.0109863,0.04875330627,588.0109863,0.007719788235,588.0109863,0.002360108774,588.0109863,0.000111349822,588.0109863,0.004787471145,
587.0077515,90.87903595,587.0077515,-0.01069823839,587.0077515,0.007772439159,587.0077515,0.002385069383,587.0077515,7.085567631E-005,587.0077515,0.004742639139,
586.0042114,90.91784668,586.0042114,0.0442902483,586.0042114,0.007905834354,586.0042114,0.00250669173,586.0042114,0.0002717064344,586.0042114,0.00475491304,
585.0004883,90.97394562,585.0004883,-0.01467620581,585.0004883,0.00799299404,585.0004883,0.00274745957,585.0004883,-0.0002245286159,585.0004883,0.005030973349,
583.99646,91.00040436,583.99646,0.05761405826,583.99646,0.008448006585,583.99646,0.002644807566,583.99646,0.0002003259287,583.99646,0.005223258864,
582.9921265,91.00930786,582.9921265,-0.02418630384,582.9921265,0.008213397115,582.9921265,0.002229602775,582.9921265,-1.465121113E-005,582.9921265,0.005051007494,
581.9876099,91.02169037,581.9876099,0.06026231498,581.9876099,0.008229489438,581.9876099,0.002467691898,581.9876099,0.0001533755567,581.9876099,0.005174609832,
580.9827881,91.06563568,580.9827881,-0.01028700732,580.9827881,0.008361574262,580.9827881,0.001990110148,580.9827881,0.0002752032597,580.9827881,0.005440006498,
580.0149536,91.12892914,580.0149536,0.02322109789,580.0149536,0.008826483041,580.0149536,0.002871398116,580.0149536,0.0001847356616,580.0149536,0.005459089298,
579.0095825,91.19086456,579.0095825,0.009906875901,579.0095825,0.008941916749,579.0095825,0.003134399885,579.0095825,0.0005463562557,579.0095825,0.00542635005,
578.0040283,91.13601685,578.0040283,0.03094346635,578.0040283,0.008739975281,578.0040283,0.002615274629,578.0040283,0.0001048508275,578.0040283,0.005334331654,
576.998291,91.18215179,576.998291,-0.01687811129,576.998291,0.008822150528,576.998291,0.002690387191,576.998291,0.0002421271784,576.998291,0.005368872546,
575.9921875,91.18223572,575.9921875,0.05575845763,575.9921875,0.008772780187,575.9921875,0.002779346192,575.9921875,0.0001535050251,575.9921875,0.005188441835,
574.9858398,91.18996429,574.9858398,-0.0192044545,574.9858398,0.00856228359,574.9858398,0.002780857263,574.9858398,2.795774526E-005,574.9858398,0.004908877891,
574.0165405,91.29013824,574.0165405,0.0296391435,574.0165405,0.008938508108,574.0165405,0.003112655133,574.0165405,0.0003338242823,574.0165405,0.005229782779,
573.0097656,91.32668304,573.0097656,0.02407260239,573.0097656,0.009325452149,573.0097656,0.003111768747,573.0097656,0.0006288369186,573.0097656,0.005385304801,
572.0026855,91.28291321,572.0026855,0.01342281885,572.0026855,0.009063353762,572.0026855,0.002868088894,572.0026855,0.0006985766813,572.0026855,0.004824638367,
570.9953003,91.3119278,570.9953003,-0.00934863463,570.9953003,0.009253519587,570.9953003,0.003200866282,570.9953003,0.0004342211469,570.9953003,0.005071225576,
569.987793,91.32533264,569.987793,0.02790744789,569.987793,0.009324816987,569.987793,0.00302076037,569.987793,0.0004889763659,569.987793,0.004778624512,
569.0172729,91.37697601,569.0172729,0.005435521249,569.0172729,0.009438768961,569.0172729,0.003187280148,569.0172729,0.0003904323094,569.0172729,0.004610970616,
568.0092163,91.38278961,568.0092163,0.03236531466,568.0092163,0.009455806576,568.0092163,0.003103868803,568.0092163,0.0001784945343,568.0092163,0.00449160859,
567.0009155,91.39972687,567.0009155,0.034499228,567.0009155,0.00966782216,567.0009155,0.002961280523,567.0009155,0.0003038263239,567.0009155,0.004555379506,
565.9923096,91.47094727,565.9923096,0.03485101461,565.9923096,0.009776383638,565.9923096,0.003269559704,565.9923096,0.0005082317512,565.9923096,0.004467363469,
564.9835205,91.41172028,564.9835205,0.007158708293,564.9835205,0.009692173451,564.9835205,0.002856337233,564.9835205,0.0001741439337,564.9835205,0.003962970339,
564.0118408,91.45929718,564.0118408,0.02460024506,564.0118408,0.009916592389,564.0118408,0.003161491128,564.0118408,0.0004141658137,564.0118408,0.003979715519,
563.0025635,91.51811218,563.0025635,0.01124479901,563.0025635,0.01007745881,563.0025635,0.003443715163,563.0025635,0.0003835663956,563.0025635,0.004312483128,
561.992981,91.59581757,561.992981,0,561.992981,0.01035019103,561.992981,0.00341937202,561.992981,0.0005807515117,561.992981,0.004464512691,
560.9831543,91.62783813,560.9831543,0.002887919778,560.9831543,0.01018130034,560.9831543,0.003506079782,560.9831543,0.0005870761815,560.9831543,0.0046684267,
560.0105591,91.6235199,560.0105591,0.02493558265,560.0105591,0.01048719138,560.0105591,0.003645166522,560.0105591,0.0004503386153,560.0105591,0.004472411238,
559.0003662,91.66409302,559.0003662,0.01345496532,559.0003662,0.01039303374,559.0003662,0.003454178339,559.0003662,0.0006111834082,559.0003662,0.004414117895,
557.9898071,91.69831848,557.9898071,-0.01072644908,557.9898071,0.01065580267,557.9898071,0.003377655288,557.9898071,0.0007292501396,557.9898071,0.004507511389,
557.0164795,91.72807312,557.0164795,0.02677017823,557.0164795,0.01072496921,557.0164795,0.003507410642,557.0164795,0.0005446974537,557.0164795,0.004261164926,
556.0054321,91.74510956,556.0054321,-0.03017197922,556.0054321,0.01097177155,556.0054321,0.003292564303,556.0054321,0.0004896242172,556.0054321,0.004230554681,
554.9942017,91.82246399,554.9942017,0.02428363264,554.9942017,0.01140092406,554.9942017,0.003764766036,554.9942017,0.0008293754072,554.9942017,0.004271046724,
553.9827271,91.77001953,553.9827271,0.05350740999,553.9827271,0.01120939013,553.9827271,0.003590142354,553.9827271,0.0005494924262,553.9827271,0.00421913201,
553.0084839,91.86933899,553.0084839,-0.004231908824,553.0084839,0.01157156564,553.0084839,0.003786047222,553.0084839,0.0005981186987,553.0084839,0.004355153069,
551.99646,91.9070282,551.99646,0.03723008186,551.99646,0.01200873591,551.99646,0.003908219282,551.99646,0.0007603666163,551.99646,0.004393067677,
550.9842529,91.98377991,550.9842529,0.04018574953,550.9842529,0.01228947379,550.9842529,0.004151568748,550.9842529,0.001098045963,550.9842529,0.004655893426,
550.0092773,91.94891357,550.0092773,0.0296183452,550.0092773,0.01224186458,550.0092773,0.004013573751,550.0092773,0.0005580715952,550.0092773,0.004149739631,
548.9966431,91.97348022,548.9966431,-0.02876160666,548.9966431,0.01250173245,548.9966431,0.004013234284,548.9966431,0.0006522723706,548.9966431,0.004151124507,
547.9837036,92.06417847,547.9837036,0.01128498372,547.9837036,0.01311314199,547.9837036,0.004233743995,547.9837036,0.001085381838,547.9837036,0.004511382431,
547.0081177,92.13199615,547.0081177,0.01228840835,547.0081177,0.0136541659,547.0081177,0.004632371943,547.0081177,0.001064725569,547.0081177,0.004646186717,
545.9946289,92.0953064,545.9946289,0.02045766823,545.9946289,0.01378080249,545.9946289,0.004611363169,545.9946289,0.001039814786,545.9946289,0.004537434783,
545.0185547,92.08104706,545.0185547,0.01255768724,545.0185547,0.01403362583,545.0185547,0.004717307165,545.0185547,0.001089404221,545.0185547,0.0045217406,
544.0046997,92.12525177,544.0046997,-0.02871582657,544.0046997,0.01470265072,544.0046997,0.004980827216,544.0046997,0.001106324606,544.0046997,0.00447225431,
542.9906006,92.17664337,542.9906006,0.009462527931,542.9906006,0.01543415245,542.9906006,0.005282158963,542.9906006,0.001184732653,542.9906006,0.004707886372,
542.013855,92.18692017,542.013855,0,542.013855,0.01614142023,542.013855,0.0053796703,542.013855,0.001271670335,542.013855,0.004683053587,
540.9992065,92.14926147,540.9992065,0.003573342925,540.9992065,0.01670062356,540.9992065,0.005485277623,540.9992065,0.001275642426,540.9992065,0.004895186052,
539.984436,92.15167999,539.984436,0,539.984436,0.01755728945,539.984436,0.005959923379,539.984436,0.001542407204,539.984436,0.004994547926,
539.006897,92.14863586,539.006897,-0.01002104394,539.006897,0.01851429045,539.006897,0.006444283761,539.006897,0.001887247083,539.006897,0.005251423921,
537.9916992,92.14159393,537.9916992,0.02491142601,537.9916992,0.01936287805,537.9916992,0.006840265822,537.9916992,0.001958151348,537.9916992,0.005272201728,
537.0137939,92.11403656,537.0137939,-0.002537749009,537.0137939,0.02080274932,537.0137939,0.007125023287,537.0137939,0.002125330502,537.0137939,0.005087516271,
535.9980469,92.08383942,535.9980469,0.004412089009,535.9980469,0.02207279392,535.9980469,0.007921466604,535.9980469,0.002534290543,535.9980469,0.00552158663,
534.9819946,92.01829529,534.9819946,0.009414422326,534.9819946,0.02332386374,534.9819946,0.008451174013,534.9819946,0.002619415289,534.9819946,0.005733263213,
534.003418,91.97001648,534.003418,0.009542440064,534.003418,0.0250300318,534.003418,0.009056058712,534.003418,0.003211532021,534.003418,0.006072733086,
532.9869995,91.911026,532.9869995,-0.003752908437,532.9869995,0.02674491145,532.9869995,0.009868977591,532.9869995,0.003282079007,532.9869995,0.006104497239,
532.0079956,91.85691833,532.0079956,0.003775152145,532.0079956,0.02898002043,532.0079956,0.01097615249,532.0079956,0.004029824864,532.0079956,0.00664355699,
530.9911499,91.76565552,530.9911499,-0.008745463565,530.9911499,0.03159006312,530.9911499,0.01224644389,530.9911499,0.00440933276,530.9911499,0.006983265746,
530.0116577,91.66742706,530.0116577,-0.008931760676,530.0116577,0.03478509933,530.0116577,0.01371414028,530.0116577,0.005474110134,530.0116577,0.007705612108,
528.9942627,91.62854004,528.9942627,-0.01457460318,528.9942627,0.03930164501,528.9942627,0.01539740805,528.9942627,0.006297285203,528.9942627,0.008193665184,
528.0144043,91.53152466,528.0144043,0.009088705294,528.0144043,0.04343928397,528.0144043,0.01797114685,528.0144043,0.00712144468,528.0144043,0.009123491123,
526.996582,91.39356995,526.996582,0,526.996582,0.0472516492,526.996582,0.01989757642,526.996582,0.008215164766,526.996582,0.009554497898,
526.0162354,91.26797485,526.0162354,-0.002125940751,526.0162354,0.05480419844,526.0162354,0.02307633124,526.0162354,0.009859576821,526.0162354,0.01067641657,
524.9979858,91.14347076,524.9979858,0.01363574434,524.9979858,0.06254055351,524.9979858,0.02716233209,524.9979858,0.01180007029,524.9979858,0.01204024535,
524.0172119,90.9756546,524.0172119,0.01811500452,524.0172119,0.07186874002,524.0172119,0.03125910088,524.0172119,0.01385602728,524.0172119,0.01359302457,
522.9984741,90.86405945,522.9984741,0.006205205806,522.9984741,0.08391052485,522.9984741,0.03709021956,522.9984741,0.01683272608,522.9984741,0.01518557966,
522.0172729,90.71372986,522.0172729,-0.003234466538,522.0172729,0.0967650339,522.0172729,0.04363421351,522.0172729,0.01990467682,522.0172729,0.01744266972,
520.9981079,90.61061096,520.9981079,0.03784099966,520.9981079,0.1130801588,520.9981079,0.05129652098,520.9981079,0.0238192156,520.9981079,0.02051021345,
520.0164795,90.43362427,520.0164795,-0.00357986684,520.0164795,0.1343921423,520.0164795,0.06102692336,520.0164795,0.02847551741,520.0164795,0.02350731753,
518.9968262,90.30154419,518.9968262,-0.0124579547,518.9968262,0.1625906825,518.9968262,0.07334879041,518.9968262,0.03445811197,518.9968262,0.02801997028,
518.0147705,90.16293335,518.0147705,0.008663008921,518.0147705,0.1887222677,518.0147705,0.08706966788,518.0147705,0.04194619879,518.0147705,0.03311790898,
516.9946899,89.98467255,516.9946899,0.009085127153,516.9946899,0.2182408869,516.9946899,0.1013614759,516.9946899,0.04816092178,516.9946899,0.03796516731,
516.0122681,89.90473938,516.0122681,0.01440143958,516.0122681,0.2576458454,516.0122681,0.1213361397,516.0122681,0.05726360902,516.0122681,0.04385654628,
514.9916382,89.78440857,514.9916382,0.0220563896,514.9916382,0.3034852743,514.9916382,0.1422218233,514.9916382,0.06995263696,514.9916382,0.05100166425,
514.008728,89.61734009,514.008728,0.007682261523,514.008728,0.3609252274,514.008728,0.1697632521,514.008728,0.08215387166,514.008728,0.06113097072,
512.9877319,89.53361511,512.9877319,0.02594129741,512.9877319,0.4323011041,512.9877319,0.2025618851,512.9877319,0.09798167646,512.9877319,0.07136926055,
512.0043945,89.39866638,512.0043945,0.0259682443,512.0043945,0.5022189617,512.0043945,0.2353470623,512.0043945,0.1144869551,512.0043945,0.0830802694,
510.9830017,89.26055145,510.9830017,0.01101968903,510.9830017,0.579046607,510.9830017,0.2721285224,510.9830017,0.1346658021,510.9830017,0.09527976066,
509.9992065,89.17905426,509.9992065,0.01121411473,509.9992065,0.6728656888,509.9992065,0.3170863092,509.9992065,0.1575669199,509.9992065,0.1108411252,
509.0152283,89.11646271,509.0152283,0.0038296571,509.0152283,0.7835035324,509.0152283,0.369553566,509.0152283,0.180891782,509.0152283,0.1281133294,
507.9931641,88.98277283,507.9931641,-0.004062233493,507.9931641,0.9053698182,507.9931641,0.4334286153,507.9931641,0.2133505791,507.9931641,0.1473935395,
507.0087585,88.90663147,507.0087585,-0.01647446491,507.0087585,1.049554944,507.0087585,0.4937422276,507.0087585,0.2419839054,507.0087585,0.1697921157,
505.9862366,88.82225037,505.9862366,0,505.9862366,1.184202194,505.9862366,0.5631552935,505.9862366,0.2751980722,505.9862366,0.1933262646,
505.0014343,88.73678589,505.0014343,0.02532072738,505.0014343,1.338373184,505.0014343,0.6368336082,505.0014343,0.3122057915,505.0014343,0.2193448097,
504.0163879,88.64942169,504.0163879,0.0172592327,504.0163879,1.514870524,504.0163879,0.7266718745,504.0163879,0.3569718301,504.0163879,0.2489158958,
502.9932556,88.61885834,502.9932556,0.01656314731,502.9932556,1.697097301,502.9932556,0.8131533861,502.9932556,0.4024570882,502.9932556,0.2803591788,
502.007782,88.56104279,502.007782,-0.01285236981,502.007782,1.905504346,502.007782,0.9113107324,502.007782,0.4534211457,502.007782,0.3146483302,
500.9841919,88.54766083,500.9841919,0.00427899044,500.9841919,2.072708368,500.9841919,1.015898228,500.9841919,0.5057549477,500.9841919,0.3499589562,
499.9983521,88.47027588,499.9983521,0.01617599465,499.9983521,2.247279167,499.9983521,1.118795753,499.9983521,0.5540411472,499.9983521,0.3846110702,
499.0122681,88.44439697,499.0122681,0.01174904034,499.0122681,2.417804956,499.0122681,1.222014666,499.0122681,0.6063714623,499.0122681,0.4200467765,
497.9880371,88.40962219,497.9880371,-0.00366407726,497.9880371,2.500761509,497.9880371,1.316823125,497.9880371,0.6571978927,497.9880371,0.4537961185,
497.0015259,88.36602783,497.0015259,-0.02684113197,497.0015259,2.59418416,497.0015259,1.415257215,497.0015259,0.7076999545,497.0015259,0.4885828197,
496.0148315,88.33772278,496.0148315,-0.003257435048,496.0148315,2.728811502,496.0148315,1.501900077,496.0148315,0.7534818649,496.0148315,0.5206343532,
494.9899597,88.32139587,494.9899597,0,494.9899597,2.819662571,494.9899597,1.588835835,494.9899597,0.7935811877,494.9899597,0.5473726392,
494.0028992,88.32374573,494.0028992,-0.01679430343,494.0028992,2.756625414,494.0028992,1.647570252,494.0028992,0.8272119164,494.0028992,0.5702882409,
493.015564,88.32054138,493.015564,-0.006326311268,493.015564,2.804586172,493.015564,1.705073237,493.015564,0.8581445813,493.015564,0.5913871527,
491.9900513,88.30432892,491.9900513,-0.01017656364,491.9900513,2.875649929,491.9900513,1.755646586,491.9900513,0.8811559081,491.9900513,0.6067762971,
491.0023499,88.28448486,491.0023499,0.01542257797,491.0023499,2.99128437,491.0023499,1.794029117,491.0023499,0.8976811171,491.0023499,0.6177114844,
490.0144653,88.27364349,490.0144653,0.004222259857,490.0144653,2.960199356,490.0144653,1.798606873,490.0144653,0.9041372538,490.0144653,0.6220865846,
488.9882813,88.32930756,488.9882813,0,488.9882813,2.908789873,488.9882813,1.796373487,488.9882813,0.9039415717,488.9882813,0.6225149632,
487.9999695,88.32215881,487.9999695,-0.003842311678,487.9999695,2.934272766,487.9999695,1.785204649,487.9999695,0.8976284862,487.9999695,0.6176888943,
487.0114136,88.36251831,487.0114136,0,487.0114136,2.925246954,487.0114136,1.770436525,487.0114136,0.8870979548,487.0114136,0.6105213165,
485.9846802,88.32823181,485.9846802,0.003300221171,485.9846802,2.958467007,485.9846802,1.736363173,485.9846802,0.8705207109,485.9846802,0.5991621017,
484.9957581,88.43341827,484.9957581,0,484.9957581,2.934854269,484.9957581,1.68343699,484.9957581,0.8462665677,484.9957581,0.5818644762,
484.0066223,88.50210571,484.0066223,0.003037759336,484.0066223,2.920086622,484.0066223,1.636021376,484.0066223,0.8190261126,484.0066223,0.5635744333,
483.0173035,88.47026825,483.0173035,-0.002380895661,483.0173035,2.889009953,483.0173035,1.587157488,483.0173035,0.7946959734,483.0173035,0.5464195013,
481.9897156,88.4810791,481.9897156,0.005846243817,481.9897156,2.840007782,481.9897156,1.5414747,481.9897156,0.7711260319,481.9897156,0.5297904015,
481.0000305,88.53881073,481.0000305,0,481.0000305,2.726960897,481.0000305,1.47154665,481.0000305,0.7367615104,481.0000305,0.5068628788,
480.0101013,88.54759979,480.0101013,0,480.0101013,2.662944555,480.0101013,1.407304406,480.0101013,0.6994199157,480.0101013,0.4835531116,
478.9818115,88.62490845,478.9818115,0.01165942848,478.9818115,2.602241039,478.9818115,1.340596676,478.9818115,0.6667938828,478.9818115,0.4606277049,
477.9915466,88.6785202,477.9915466,0.002799944021,477.9915466,2.550802946,477.9915466,1.273373008,477.9915466,0.6371792555,477.9915466,0.4385358393,
477.0010376,88.67705536,477.0010376,0.02479885332,477.0010376,2.476553917,477.0010376,1.219672561,477.0010376,0.6071048975,477.0010376,0.4184547067,
476.0103455,88.63987732,476.0103455,0.01961498708,476.0103455,2.36517787,476.0103455,1.160736322,476.0103455,0.5771108866,476.0103455,0.3984103501,
474.9813538,88.64789581,474.9813538,-0.005596910138,474.9813538,2.257246017,474.9813538,1.100995302,474.9813538,0.5475931168,474.9813538,0.3783399761,
473.9902344,88.59623718,473.9902344,0.008696660399,473.9902344,2.164447069,473.9902344,1.041946769,473.9902344,0.5184551477,473.9902344,0.3583292663,
472.9989014,88.64068604,472.9989014,0.005780513864,472.9989014,2.05994916,472.9989014,0.9876627922,472.9989014,0.4929403663,472.9989014,0.3405486047,
472.0074158,88.59434509,472.0074158,0.02611723542,472.0074158,1.980747104,472.0074158,0.9464003444,472.0074158,0.4715321958,472.0074158,0.3243113458,
471.0157471,88.54232788,471.0157471,0.01949127764,471.0157471,1.906411767,471.0157471,0.907648325,471.0157471,0.4509585202,471.0157471,0.3122831285,
469.9857483,88.43917847,469.9857483,-0.0172930602,469.9857483,1.816476226,469.9857483,0.8707960844,469.9857483,0.4320933521,469.9857483,0.299050808,
468.9936829,88.30280304,468.9936829,0,468.9936829,1.759372115,468.9936829,0.8358975649,468.9936829,0.4148636758,468.9936829,0.2869061232,
468.0014343,88.19685364,468.0014343,0.01453910954,468.0014343,1.6987288,468.0014343,0.8034494519,468.0014343,0.4000143111,468.0014343,0.2765907347,
467.0089111,88.06835938,467.0089111,0.02393235266,467.0089111,1.648900032,467.0089111,0.7807098031,467.0089111,0.3874292672,467.0089111,0.2681303024,
466.0162964,87.98239136,466.0162964,0.002546408447,466.0162964,1.604729176,466.0162964,0.7587845325,466.0162964,0.3765842021,466.0162964,0.2609094977,
464.9852905,87.84976959,464.9852905,0.002507459605,464.9852905,1.561529875,464.9852905,0.7387554646,464.9852905,0.3664612472,464.9852905,0.2538700104,
463.9921875,87.71347046,463.9921875,0.0223824922,463.9921875,1.52524364,463.9921875,0.719696939,463.9921875,0.3565814197,463.9921875,0.2469653487,
462.9989929,87.62012482,462.9989929,0.01992627233,462.9989929,1.483604431,462.9989929,0.7008231878,462.9989929,0.3475258648,462.9989929,0.2409958541,
462.0056458,87.40943909,462.0056458,-0.004962533247,462.0056458,1.444924235,462.0056458,0.681933105,462.0056458,0.3383574784,462.0056458,0.2346094847,
461.0120544,87.34702301,461.0120544,0.018224895,461.0120544,1.411301374,461.0120544,0.6655724645,461.0120544,0.3299873769,461.0120544,0.2293725759,
460.018158,87.23804474,460.018158,0.008126446977,460.018158,1.37196219,460.018158,0.6462988853,460.018158,0.3209720254,460.018158,0.2227924764,
458.9860229,87.12439728,458.9860229,0.01547867898,458.9860229,1.337530494,458.9860229,0.628215313,458.9860229,0.3123139739,458.9860229,0.2177992612,
457.9918213,87.00870514,457.9918213,0.006118079182,457.9918213,1.293921471,457.9918213,0.6105709076,457.9918213,0.3024540246,457.9918213,0.210504815,
456.9974365,86.87462616,456.9974365,-0.01220881939,456.9974365,1.24525249,456.9974365,0.5871061683,456.9974365,0.2906438708,456.9974365,0.2028048933,
456.0029297,86.84062195,456.0029297,0.01016234327,456.0029297,1.202628016,456.0029297,0.5666280985,456.0029297,0.280701071,456.0029297,0.1958260983,
455.0082397,86.73674774,455.0082397,0.00500337733,455.0082397,1.156162262,455.0082397,0.5433107018,455.0082397,0.2691932917,455.0082397,0.1887862682,
454.0132751,86.69619751,454.0132751,-0.008862367831,454.0132751,1.109992981,454.0132751,0.5224190354,454.0132751,0.2585364878,454.0132751,0.1814722419,
453.018219,86.59066772,453.018219,0,453.018219,1.061417818,453.018219,0.4963376522,453.018219,0.2470167279,453.018219,0.1742576212,
451.9846191,86.54870605,451.9846191,-0.002236536006,451.9846191,1.007349849,451.9846191,0.4739122987,451.9846191,0.2352092564,451.9846191,0.1653542817,
450.9891663,86.44287872,450.9891663,-0.008829047903,450.9891663,0.9574739933,450.9891663,0.4487493336,450.9891663,0.2225420773,450.9891663,0.1572623998,
449.9935303,86.35509491,449.9935303,0.01834189333,449.9935303,0.907047987,449.9935303,0.4268120229,449.9935303,0.2108988166,449.9935303,0.1495842189,
448.9976807,86.33008575,448.9976807,0.00465636095,448.9976807,0.8581576347,448.9976807,0.4033118188,448.9976807,0.200006187,448.9976807,0.1423308849,
448.0016479,86.24407959,448.0016479,-0.009015913121,448.0016479,0.8112537265,448.0016479,0.3799463212,448.0016479,0.1881406158,448.0016479,0.1344305128,
447.0054321,86.22425842,447.0054321,0.004113025963,447.0054321,0.7626376748,447.0054321,0.3574704528,447.0054321,0.1768399626,447.0054321,0.1265645474,
446.0090637,86.19329071,446.0090637,0.008320505731,446.0090637,0.7134532332,446.0090637,0.3359213769,446.0090637,0.1656771898,446.0090637,0.1190563887,
445.0124512,86.11932373,445.0124512,0.003833767958,445.0124512,0.6719593406,445.0124512,0.3145194948,445.0124512,0.1558846682,445.0124512,0.1117530987,
444.0157471,86.11669922,444.0157471,-0.00437101163,444.0157471,0.6350423098,444.0157471,0.297573626,444.0157471,0.1458280236,444.0157471,0.1072922125,
443.0187988,86.01611328,443.0187988,0.01294386759,443.0187988,0.5970118046,443.0187988,0.2796328366,443.0187988,0.1375687718,443.0187988,0.1008585244,
441.9833069,86.0161972,441.9833069,0,441.9833069,0.5590005517,441.9833069,0.2606126964,441.9833069,0.1291975379,441.9833069,0.09536413103,
440.9859619,86.0059433,440.9859619,0.01214230806,440.9859619,0.5232374668,440.9859619,0.2443899065,440.9859619,0.1211925,440.9859619,0.08987448364,
439.9885254,85.95185852,439.9885254,-0.01223890297,439.9885254,0.4931415319,439.9885254,0.2316806167,439.9885254,0.1141517013,439.9885254,0.08509419113,
438.9908447,85.89769745,438.9908447,0.004292213824,438.9908447,0.4700311124,438.9908447,0.2199897021,438.9908447,0.1082382053,438.9908447,0.08135929704,
437.992981,85.8815918,437.992981,-0.004434294999,437.992981,0.4439723492,437.992981,0.2077763081,437.992981,0.1023555323,437.992981,0.07717289031,
436.9950256,85.85285187,436.9950256,0.002422891557,436.9950256,0.421030581,436.9950256,0.1976593435,436.9950256,0.0963280946,436.9950256,0.07413423061,
435.9967957,85.89642334,435.9967957,-0.009709916078,435.9967957,0.3978622854,435.9967957,0.1866418868,435.9967957,0.0917654112,435.9967957,0.07043159008,
434.9984436,85.87403107,434.9984436,0,434.9984436,0.3781326711,434.9984436,0.1769126654,434.9984436,0.08698160946,434.9984436,0.06779809296,
433.9998474,85.88884735,433.9998474,0.002417678013,433.9998474,0.3604914248,433.9998474,0.1686381251,433.9998474,0.08300232142,433.9998474,0.06533698738,
433.0011597,85.89324188,433.0011597,0.01363977324,433.0011597,0.3441223204,433.0011597,0.1619123667,433.0011597,0.07926926762,433.0011597,0.0628451705,
432.0022888,85.87282562,432.0022888,0.008975250646,432.0022888,0.3288651407,432.0022888,0.1544858515,432.0022888,0.07533291727,432.0022888,0.06057341024,
431.0032043,85.83384705,431.0032043,0.01644505002,431.0032043,0.3130941987,431.0032043,0.147250101,431.0032043,0.07140019536,431.0032043,0.05788776651,
430.0039368,85.84051514,430.0039368,-0.005843510851,430.0039368,0.2966372669,430.0039368,0.1396170706,430.0039368,0.06814276427,430.0039368,0.05558090284,
429.0045166,85.80787659,429.0045166,-0.008874689229,429.0045166,0.2837565839,429.0045166,0.1333111972,429.0045166,0.06500854343,429.0045166,0.0538229309,
428.0048828,85.79311371,428.0048828,-0.008546642959,428.0048828,0.2704539895,428.0048828,0.1276040375,428.0048828,0.06193012744,428.0048828,0.05194310844,
427.0050964,85.81170654,427.0050964,-0.004037793726,427.0050964,0.2582965493,427.0050964,0.1218999922,427.0050964,0.05891473219,427.0050964,0.05032761395,
426.005127,85.73285675,426.005127,-0.01526659355,426.005127,0.2448525578,426.005127,0.1155978814,426.005127,0.0557365939,426.005127,0.04831733182,
425.0050354,85.77664948,425.0050354,0.01523113344,425.0050354,0.2319696397,425.0050354,0.1094579548,425.0050354,0.05328660831,425.0050354,0.04662229121,
424.0047302,85.75071716,424.0047302,-0.003361796495,424.0047302,0.2205668092,424.0047302,0.104415901,424.0047302,0.05029604957,424.0047302,0.04490097612,
423.0042725,85.72770691,423.0042725,-0.003347168211,423.0042725,0.2094234377,423.0042725,0.09871508926,423.0042725,0.04772213846,423.0042725,0.0434416011,
422.0036316,85.70967102,422.0036316,0.006806193385,422.0036316,0.1996695548,422.0036316,0.09451443702,422.0036316,0.04494059086,422.0036316,0.04186777398,
421.0028076,85.72369385,421.0028076,0.006964758504,421.0028076,0.1887911111,421.0028076,0.08949892968,421.0028076,0.04251456633,421.0028076,0.04042138159,
420.0018005,85.66136932,420.0018005,0.01940428838,420.0018005,0.1783923954,420.0018005,0.08431236446,420.0018005,0.04004095495,420.0018005,0.03867203742,
419.0006104,85.69325256,419.0006104,-0.003532320727,419.0006104,0.1695907414,419.0006104,0.08054246008,419.0006104,0.03820530698,419.0006104,0.03741208836,
417.9993286,85.64746857,417.9993286,-0.003888176056,417.9993286,0.1600029022,417.9993286,0.07619392872,417.9993286,0.0357764028,417.9993286,0.03581640124,
416.9978027,85.67691803,416.9978027,0.01932284236,416.9978027,0.1519863307,416.9978027,0.07252310216,416.9978027,0.03391994536,416.9978027,0.03479985148,
415.9961243,85.66015625,415.9961243,-0.006868446711,415.9961243,0.1444997638,415.9961243,0.06881254166,415.9961243,0.03203599527,415.9961243,0.03354332224,
414.9942932,85.64014435,414.9942932,-0.007593590766,414.9942932,0.1372760087,414.9942932,0.06561596692,414.9942932,0.03028767556,414.9942932,0.03247217461,
413.9923096,85.66233826,413.9923096,0.00533432886,413.9923096,0.1309929043,413.9923096,0.06260073185,413.9923096,0.02911001816,413.9923096,0.03173563257,
412.9901123,85.67874146,412.9901123,0.01895888522,412.9901123,0.1253423244,412.9901123,0.0602718927,412.9901123,0.02776825801,412.9901123,0.03108096309,
411.9877319,85.64863586,411.9877319,0.02172732167,411.9877319,0.1204776913,411.9877319,0.05783952773,411.9877319,0.02646501921,411.9877319,0.03015252575,
410.9852295,85.66574097,410.9852295,0.008464056067,410.9852295,0.1162315533,410.9852295,0.05594247952,410.9852295,0.02533276379,410.9852295,0.02966702916,
409.9825745,85.67176056,409.9825745,-0.01599232294,409.9825745,0.112299338,409.9825745,0.05419985205,409.9825745,0.02472668886,409.9825745,0.02910605818,
409.01828,85.66582489,409.01828,0.002745065838,409.01828,0.1090058684,409.01828,0.05269974098,409.01828,0.02369631641,409.01828,0.02845183015,
408.0152283,85.69502258,408.0152283,0.01138303895,408.0152283,0.1061138585,408.0152283,0.05150173977,408.0152283,0.02311692573,408.0152283,0.02810422145,
407.0120544,85.68699646,407.0120544,0.008932825178,407.0120544,0.1036479324,407.0120544,0.05038895085,407.0120544,0.02248250134,407.0120544,0.02773691155,
406.0087585,85.69481659,406.0087585,-0.01881669834,406.0087585,0.1017170325,406.0087585,0.04949124902,406.0087585,0.02198371477,406.0087585,0.02751340903,
405.005249,85.71059418,405.005249,-0.008617717773,405.005249,0.09993539751,405.005249,0.04885166138,405.005249,0.02165256068,405.005249,0.02720642462,
404.0015259,85.70707703,404.0015259,-0.007373181172,404.0015259,0.098415941,404.0015259,0.04780830443,404.0015259,0.02116119489,404.0015259,0.02679077908,
402.9976807,85.70021057,402.9976807,0.02449779399,402.9976807,0.09685908258,402.9976807,0.04758134112,402.9976807,0.0206878949,402.9976807,0.02593938261,
401.9936829,85.73815155,401.9936829,0.01390201785,401.9936829,0.09616442025,401.9936829,0.04702425003,401.9936829,0.02056964859,401.9936829,0.02571325935,
400.989502,85.73404694,400.989502,0.01232627686,400.989502,0.09519918263,400.989502,0.04671576247,400.989502,0.02032601461,400.989502,0.02562057599,
399.985199,85.74952698,399.985199,0.02935305797,399.985199,0.09430062771,399.985199,0.04645174369,399.985199,0.02019609883,399.985199,0.02553191967,
399.0193481,85.75149536,399.0193481,0,399.0193481,0.09335456789,399.0193481,0.04614147544,399.0193481,0.02004426345,399.0193481,0.02553266101,
398.014679,85.77143097,398.014679,0.002885336755,398.014679,0.09297224879,398.014679,0.04582912475,398.014679,0.02019712888,398.014679,0.02522177994,
397.0098877,85.75021362,397.0098877,0.02256317623,397.0098877,0.09254659712,397.0098877,0.0455519855,397.0098877,0.0200416334,397.0098877,0.02493187413,
396.0049133,85.7365036,396.0049133,0.008890995756,396.0049133,0.09198165685,396.0049133,0.04539234564,396.0049133,0.01997004636,396.0049133,0.0247021094,
394.9997559,85.76435089,394.9997559,0.01450957637,394.9997559,0.09158423543,394.9997559,0.04550616443,394.9997559,0.0199075751,394.9997559,0.02489261702,
393.9944763,85.75707245,393.9944763,0,393.9944763,0.09121771157,393.9944763,0.0452917181,393.9944763,0.01997085847,393.9944763,0.02467440814,
392.9889832,85.66721344,392.9889832,-0.01844295301,392.9889832,0.09068467468,392.9889832,0.04501150548,392.9889832,0.01937270351,392.9889832,0.02356030606,
391.9833679,85.70584869,391.9833679,0.01445365231,391.9833679,0.09116706252,391.9833679,0.04532539099,391.9833679,0.0197593905,391.9833679,0.02374366671,
391.0162964,85.67501068,391.0162964,-0.004609144293,391.0162964,0.09080743045,391.0162964,0.04521268606,391.0162964,0.01994540915,391.0162964,0.02400183864,
390.0103455,85.64002228,390.0103455,-0.004562147893,390.0103455,0.09064500034,390.0103455,0.04547293484,390.0103455,0.01970897615,390.0103455,0.02284640074,
389.0042725,85.62660217,389.0042725,0.002884254791,389.0042725,0.09116090089,389.0042725,0.04557869583,389.0042725,0.01987031475,389.0042725,0.02305301838,
387.9980164,85.59129333,387.9980164,-0.01115573384,387.9980164,0.09155058116,387.9980164,0.0458104834,387.9980164,0.02011252753,387.9980164,0.02350081503,
386.9916077,85.51069641,386.9916077,0.005719024222,386.9916077,0.09124204516,386.9916077,0.04573167488,386.9916077,0.01996207796,386.9916077,0.02322182991,
385.9850464,85.45274353,385.9850464,0.01037021633,385.9850464,0.09202481806,385.9850464,0.04583266377,385.9850464,0.01987391897,385.9850464,0.02298516408,
385.0170288,85.43911743,385.0170288,0.01763875782,385.0170288,0.09241335094,385.0170288,0.04640135914,385.0170288,0.02028090507,385.0170288,0.02326219343,
384.0101929,85.37498474,384.0101929,0.0259373486,384.0101929,0.09234511107,384.0101929,0.04648176208,384.0101929,0.02025958709,384.0101929,0.0232833866,
383.0031433,85.33287811,383.0031433,0.003114682389,383.0031433,0.09272611886,383.0031433,0.04650455341,383.0031433,0.02072981372,383.0031433,0.02352234721,
381.9959717,85.23352051,381.9959717,0.003041269956,381.9959717,0.0932058692,381.9959717,0.04691635072,381.9959717,0.02042536251,381.9959717,0.02344728634,
380.9886169,85.13070679,380.9886169,0.006685162429,380.9886169,0.09301210195,380.9886169,0.04681880027,380.9886169,0.02057866007,380.9886169,0.02349537611,
379.9811401,85.08390808,379.9811401,0.006489503197,379.9811401,0.09321100265,379.9811401,0.04695693031,379.9811401,0.02082232945,379.9811401,0.02369762771,
379.0122375,85.03769684,379.0122375,0.0225522723,379.0122375,0.09342379868,379.0122375,0.04720353708,379.0122375,0.020922089,379.0122375,0.02379118837,
378.004425,84.95830536,378.004425,-0.01274656691,378.004425,0.09331975132,378.004425,0.04719543085,378.004425,0.02114287578,378.004425,0.02408856899,
376.99646,84.81790161,376.99646,-0.01034340076,376.99646,0.09220066667,376.99646,0.04672380537,376.99646,0.02096949145,376.99646,0.02424497344,
375.9883728,84.68191528,375.9883728,0.005279970355,375.9883728,0.09163238108,375.9883728,0.0467350781,375.9883728,0.02004035935,375.9883728,0.02345649526,
375.0188904,84.59354401,375.0188904,-0.005962317809,375.0188904,0.0910975188,375.0188904,0.04644615576,375.0188904,0.02025212906,375.0188904,0.02368849702,
374.0104675,84.50778961,374.0104675,-0.01302719489,374.0104675,0.09066863358,374.0104675,0.04618082941,374.0104675,0.02005936392,374.0104675,0.02365402691,
373.0019226,84.42171478,373.0019226,0.02979293838,373.0019226,0.0898232609,373.0019226,0.04606835917,373.0019226,0.0199021548,373.0019226,0.02387620695,
371.9931946,84.24806213,371.9931946,-0.02482108213,371.9931946,0.0881094411,371.9931946,0.04538099468,371.9931946,0.01982536167,371.9931946,0.02366094291,
370.9843445,84.12442017,370.9843445,-0.00432825461,370.9843445,0.0876506716,370.9843445,0.04479558021,370.9843445,0.01933825016,370.9843445,0.02370254882,
370.0140991,83.93022156,370.0140991,-0.01626875997,370.0140991,0.08627897501,370.0140991,0.04413618892,370.0140991,0.01898922771,370.0140991,0.0228782706,
369.0049438,83.86634064,369.0049438,-0.02391295694,369.0049438,0.08569964021,369.0049438,0.0440902859,369.0049438,0.01903893612,369.0049438,0.02314878814,
367.995636,83.80828094,367.995636,-0.007847753353,367.995636,0.08511377871,367.995636,0.04363604635,367.995636,0.01887674443,367.995636,0.02318881638,
366.9862061,83.67101288,366.9862061,-0.01138217561,366.9862061,0.083617948,366.9862061,0.04294637218,366.9862061,0.0186515674,366.9862061,0.02296024561,
366.0154419,83.52690125,366.0154419,0.01345578022,366.0154419,0.08246856183,366.0154419,0.04255202413,366.0154419,0.01808102243,366.0154419,0.02239053138,
365.0056458,83.46533966,365.0056458,0.02168178372,365.0056458,0.08193027228,365.0056458,0.04238101095,365.0056458,0.01832121424,365.0056458,0.0221640151,
363.9957886,83.3265686,363.9957886,-0.01039537136,363.9957886,0.08062835038,363.9957886,0.04167625681,363.9957886,0.01789518073,363.9957886,0.02214200422,
362.9856873,83.19377136,362.9856873,0.01904640906,362.9856873,0.07982533425,362.9856873,0.04125513509,362.9856873,0.01777720824,362.9856873,0.0219851844,
362.0143433,83.17242432,362.0143433,-0.01566743292,362.0143433,0.0790676102,362.0143433,0.04097637534,362.0143433,0.01806172729,362.0143433,0.02234684303,
361.0040283,82.91937256,361.0040283,-0.0123931095,361.0040283,0.07709223032,361.0040283,0.04020352289,361.0040283,0.01709602959,361.0040283,0.02132921666,
359.9935303,82.91645813,359.9935303,-0.006767120678,359.9935303,0.07723856717,359.9935303,0.04039336741,359.9935303,0.01632288471,359.9935303,0.02103722282,
358.9828796,82.83320618,358.9828796,0.01210917626,358.9828796,0.07638952881,358.9828796,0.0402287133,358.9828796,0.01673508435,358.9828796,0.02119848505,
358.0109558,82.7977829,358.0109558,0.005488775205,358.0109558,0.07682879269,358.0109558,0.04023368284,358.0109558,0.01692917757,358.0109558,0.02166510373,
357.000061,82.6926651,357.000061,-0.01426330023,357.000061,0.07616921514,357.000061,0.04004237428,357.000061,0.01739742793,357.000061,0.02202717587,
355.9889832,82.57118225,355.9889832,0,355.9889832,0.07654239982,355.9889832,0.03993114457,355.9889832,0.01621342637,355.9889832,0.02095626295,
355.0166626,82.47157288,355.0166626,0.00321657164,355.0166626,0.07589521259,355.0166626,0.03977366909,355.0166626,0.01655565202,355.0166626,0.02119198814,
354.0053406,82.51524353,354.0053406,0.01204529032,354.0053406,0.07723482698,354.0053406,0.040572837,354.0053406,0.01711673476,354.0053406,0.02188447304,
352.9938049,82.43247223,352.9938049,0.02168726921,352.9938049,0.07808062434,352.9938049,0.04078505188,352.9938049,0.01756861061,352.9938049,0.02199596912,
351.9822083,82.40324402,351.9822083,0,351.9822083,0.0801319629,351.9822083,0.04201999307,351.9822083,0.01764697395,351.9822083,0.02245916612,
351.0093079,82.36617279,351.0093079,0.02274364047,351.0093079,0.08176465333,351.0093079,0.04287896678,351.0093079,0.01850383542,351.0093079,0.02337775752,
349.9973755,82.37438202,349.9973755,0.007346728817,349.9973755,0.08442851901,349.9973755,0.04425715655,349.9973755,0.01912230067,349.9973755,0.02395642921,
348.985321,82.32909393,348.985321,0.01101442892,348.985321,0.08749656379,348.985321,0.04584934935,348.985321,0.01986508444,348.985321,0.02447816543,
348.0120544,82.24173737,348.0120544,0.01484395284,348.0120544,0.09122620523,348.0120544,0.04747410864,348.0120544,0.02066644654,348.0120544,0.02506474964,
346.9997253,82.29190826,346.9997253,0.01453171577,346.9997253,0.09674617648,346.9997253,0.0499441959,346.9997253,0.0223215539,346.9997253,0.02654726245,
345.9872131,82.19754791,345.9872131,0.02101870626,345.9872131,0.1022275016,345.9872131,0.05235224217,345.9872131,0.02366772108,345.9872131,0.02714491636,
345.0135498,82.23082733,345.0135498,-0.003019870725,345.0135498,0.1079492196,345.0135498,0.05525199324,345.0135498,0.02503367886,345.0135498,0.02847703733,
344.0007935,82.17582703,344.0007935,0.01757211797,344.0007935,0.11407087,344.0007935,0.05830239505,344.0007935,0.02653091773,344.0007935,0.02958197705,
342.987854,82.13188171,342.987854,-0.0187858101,342.987854,0.1221685112,342.987854,0.06224621087,342.987854,0.0279573258,342.987854,0.03037650324,
342.0137939,82.07334137,342.0137939,-0.01739190891,342.0137939,0.131539315,342.0137939,0.06634262949,342.0137939,0.02998033352,342.0137939,0.03228403255,
341.0006409,82.09124756,341.0006409,0.03598805144,341.0006409,0.1425271183,341.0006409,0.07143638283,341.0006409,0.03299059346,341.0006409,0.03483648226,
339.9873352,82.08325195,339.9873352,0.03562776372,339.9873352,0.1519039124,339.9873352,0.0761538893,339.9873352,0.03540661931,339.9873352,0.03704060242,
339.0128479,82.07617188,339.0128479,-0.007061399054,339.0128479,0.1640475839,339.0128479,0.08183775097,339.0128479,0.03804475814,339.0128479,0.03893881664,
337.9992676,82.0796051,337.9992676,-0.003446612041,337.9992676,0.1768598855,337.9992676,0.08828850091,337.9992676,0.04123113677,337.9992676,0.04166916385,
336.9855347,82.0533905,336.9855347,-0.003407503478,336.9855347,0.1911903173,336.9855347,0.09536942095,336.9855347,0.04416676238,336.9855347,0.04384171218,
336.0106812,82.052948,336.0106812,0,336.0106812,0.2065942585,336.0106812,0.1018309072,336.0106812,0.04796129093,336.0106812,0.04709873721,
334.9967041,82.07603455,334.9967041,0,334.9967041,0.2194592655,334.9967041,0.1082340926,334.9967041,0.05129369348,334.9967041,0.04946061596,
333.9825439,82.05885315,333.9825439,0.003124219133,333.9825439,0.2336917371,333.9825439,0.1151488423,333.9825439,0.05458411574,333.9825439,0.05178229511,
333.0072937,82.1272583,333.0072937,0.01165433321,333.0072937,0.2505701482,333.0072937,0.1232842952,333.0072937,0.05897056311,333.0072937,0.0557837449,
331.9928894,82.05925751,331.9928894,0.0114965653,331.9928894,0.266263634,331.9928894,0.1304126233,331.9928894,0.06204997376,331.9928894,0.05749179423,
331.017395,82.10827637,331.017395,-0.02886836044,331.017395,0.2819277048,331.017395,0.1384917647,331.017395,0.0661098063,331.017395,0.06075323001,
330.0027466,82.11022949,330.0027466,0.01322357729,330.0027466,0.295866996,330.0027466,0.1447154582,330.0027466,0.06974608451,330.0027466,0.06311875582,
328.987915,82.13632965,328.987915,0.03877096251,328.987915,0.3106457591,328.987915,0.1522738934,328.987915,0.07356488705,328.987915,0.06651649624,
328.0120239,82.11155701,328.0120239,-0.01912655495,328.0120239,0.3257578611,328.0120239,0.1599208564,328.0120239,0.07659646124,328.0120239,0.06925930083,
326.9969788,82.16426086,326.9969788,0.01197425555,326.9969788,0.3403387368,326.9969788,0.1664955765,326.9969788,0.08056791872,326.9969788,0.07306443155,
325.981781,82.11463928,325.981781,0.0130890049,325.981781,0.3533684015,325.981781,0.1722272187,325.981781,0.083786726,325.981781,0.07544571161,
325.0055237,82.11208344,325.0055237,0.01021398231,325.0055237,0.3635271192,325.0055237,0.1775749922,325.0055237,0.08536725491,325.0055237,0.07739807665,
323.9900818,82.15634155,323.9900818,-0.004474873655,323.9900818,0.3728578389,323.9900818,0.1819494069,323.9900818,0.08851870149,323.9900818,0.08064284176,
323.0135193,82.099823,323.0135193,-0.01119169127,323.0135193,0.3786489964,323.0135193,0.1851510406,323.0135193,0.08874353021,323.0135193,0.08077395707,
321.9978333,82.06013489,321.9978333,0.01026641298,321.9978333,0.3834334016,321.9978333,0.1875884533,321.9978333,0.08980677277,321.9978333,0.08186350018,
320.9819946,82.08519745,320.9819946,-0.008481284603,320.9819946,0.3848689795,320.9819946,0.1880702376,320.9819946,0.0908376798,320.9819946,0.08363907039,
320.0050964,82.09181213,320.0050964,0.01172298566,320.0050964,0.382563442,320.0050964,0.1869287044,320.0050964,0.09026240557,320.0050964,0.08446273208,
318.9889832,82.09146118,318.9889832,-0.0132573247,318.9889832,0.3770627975,318.9889832,0.184593007,318.9889832,0.08952765912,318.9889832,0.08419491351,
318.0118408,82.00914001,318.0118408,-0.002484719036,318.0118408,0.3688093126,318.0118408,0.1804064363,318.0118408,0.086731866,318.0118408,0.08200342208,
316.9954834,81.97238159,316.9954834,0.002673082054,316.9954834,0.3585178554,316.9954834,0.1744728833,316.9954834,0.08459320664,316.9954834,0.08100569248,
316.0180969,81.9221344,316.0180969,0.01025904063,316.0180969,0.3436528444,316.0180969,0.1691666991,316.0180969,0.0815204829,316.0180969,0.07971276343,
315.0014954,81.88578796,315.0014954,0,315.0014954,0.3296580315,315.0014954,0.1630684882,315.0014954,0.07868738472,315.0014954,0.07815403491,
313.9847412,81.84477997,313.9847412,0,313.9847412,0.3170456588,313.9847412,0.1568938345,313.9847412,0.0762623921,313.9847412,0.07657398283,
313.0069885,81.77259827,313.0069885,0.007906388491,313.0069885,0.3057515025,313.0069885,0.1515722573,313.0069885,0.07220577449,313.0069885,0.07321407646,
311.9900208,81.73397064,311.9900208,0.008655760437,311.9900208,0.2928618491,311.9900208,0.1447062194,311.9900208,0.06987519562,311.9900208,0.0722759366,
311.0120544,81.72174835,311.0120544,-0.007313951384,311.0120544,0.2810654938,311.0120544,0.1402791142,311.0120544,0.06770971417,311.0120544,0.07116214931,
309.9947815,81.63506317,309.9947815,0.003536943346,309.9947815,0.2743990719,309.9947815,0.1365383565,309.9947815,0.06563830376,309.9947815,0.06888549775,
309.0165405,81.55329132,309.0165405,0,309.0165405,0.2673616707,309.0165405,0.1333556026,309.0165405,0.06377327442,309.0165405,0.06767319888,
307.9990845,81.47814941,307.9990845,0.003294784343,307.9990845,0.2613098323,307.9990845,0.1303021163,307.9990845,0.06250408292,307.9990845,0.06715866178,
306.9814453,81.38015747,306.9814453,-0.007086670026,306.9814453,0.2579317093,306.9814453,0.1289799809,306.9814453,0.06120326743,306.9814453,0.0652949214,
306.0028687,81.34975433,306.0028687,0.00731662754,306.0028687,0.2564093471,306.0028687,0.1280000806,306.0028687,0.06137836725,306.0028687,0.06643066555,
304.9849854,81.29785919,304.9849854,0.01499306504,304.9849854,0.2566144764,304.9849854,0.128412962,304.9849854,0.06141092628,304.9849854,0.0657890588,
304.0061951,81.27560425,304.0061951,-0.007258474361,304.0061951,0.2588684261,304.0061951,0.1296397895,304.0061951,0.06244268641,304.0061951,0.06613898277,
302.9880981,81.19448853,302.9880981,0,302.9880981,0.2628251314,302.9880981,0.1315633804,302.9880981,0.06311977655,302.9880981,0.06650237739,
302.0090332,81.1223526,302.0090332,0,302.0090332,0.2706917524,302.0090332,0.1345703006,302.0090332,0.06530765444,302.0090332,0.06834801286,
300.9906616,81.00518799,300.9906616,0.002748989733,300.9906616,0.2782654762,300.9906616,0.1388476044,300.9906616,0.06625942886,300.9906616,0.06774643809,
300.0113831,80.97459412,300.0113831,-0.005579734221,300.0113831,0.2893362939,300.0113831,0.1438249052,300.0113831,0.06931996346,300.0113831,0.06944387406,
,NULL,NULL,NULL,NULL,NULL,NULL,NULL,NULL,NULL,NULL,NULL,NULL
Baseline 100%T,,NULL,NULL,NULL,NULL,NULL,NULL,NULL,NULL,NULL,NULL,NULL
Baseline 100%T,NULL,NULL,NULL,NULL,NULL,NULL,NULL,NULL,NULL,NULL,NULL,NULL
Collection Time: 1/29/2025 3:31:22 PM,NULL,NULL,NULL,NULL,NULL,NULL,NULL,NULL,NULL,NULL,NULL,NULL
Operator Name  :,NULL,NULL,NULL,NULL,NULL,NULL,NULL,NULL,NULL,NULL,NULL,NULL
Scan Version 5.1.0.1016,NULL,NULL,NULL,NULL,NULL,NULL,NULL,NULL,NULL,NULL,NULL,NULL
Parameter List :,NULL,NULL,NULL,NULL,NULL,NULL,NULL,NULL,NULL,NULL,NULL,NULL
Instrument  Cary 60,NULL,NULL,NULL,NULL,NULL,NULL,NULL,NULL,NULL,NULL,NULL,NULL
Instrument Version  2.00,NULL,NULL,NULL,NULL,NULL,NULL,NULL,NULL,NULL,NULL,NULL,NULL
Start (nm)  700.0,NULL,NULL,NULL,NULL,NULL,NULL,NULL,NULL,NULL,NULL,NULL,NULL
Stop (nm)  300.0,NULL,NULL,NULL,NULL,NULL,NULL,NULL,NULL,NULL,NULL,NULL,NULL
X Mode  Nanometers,NULL,NULL,NULL,NULL,NULL,NULL,NULL,NULL,NULL,NULL,NULL,NULL
Y Mode  Abs,NULL,NULL,NULL,NULL,NULL,NULL,NULL,NULL,NULL,NULL,NULL,NULL
UV-Vis Scan Rate (nm/min)  4800.00,NULL,NULL,NULL,NULL,NULL,NULL,NULL,NULL,NULL,NULL,NULL,NULL
UV-Vis Data Interval (nm)  1.00,NULL,NULL,NULL,NULL,NULL,NULL,NULL,NULL,NULL,NULL,NULL,NULL
UV-Vis Ave. Time (sec)  0.0125,NULL,NULL,NULL,NULL,NULL,NULL,NULL,NULL,NULL,NULL,NULL,NULL
Beam Mode  Dual Beam,NULL,NULL,NULL,NULL,NULL,NULL,NULL,NULL,NULL,NULL,NULL,NULL
Baseline Correction  On,NULL,NULL,NULL,NULL,NULL,NULL,NULL,NULL,NULL,NULL,NULL,NULL
Baseline Type  Zero/baseline correction,NULL,NULL,NULL,NULL,NULL,NULL,NULL,NULL,NULL,NULL,NULL,NULL
Baseline File Name,NULL,NULL,NULL,NULL,NULL,NULL,NULL,NULL,NULL,NULL,NULL,NULL
Baseline Std Ref File Name,NULL,NULL,NULL,NULL,NULL,NULL,NULL,NULL,NULL,NULL,NULL,NULL
Cycle Mode  Off,NULL,NULL,NULL,NULL,NULL,NULL,NULL,NULL,NULL,NULL,NULL,NULL
Method Log     :,NULL,NULL,NULL,NULL,NULL,NULL,NULL,NULL,NULL,NULL,NULL,NULL
Method Name    :,NULL,NULL,NULL,NULL,NULL,NULL,NULL,NULL,NULL,NULL,NULL,NULL
Date/Time stamp: 1/29/2025 2:33:12 PM,NULL,NULL,NULL,NULL,NULL,NULL,NULL,NULL,NULL,NULL,NULL,NULL
Method Modifications:,NULL,NULL,NULL,NULL,NULL,NULL,NULL,NULL,NULL,NULL,NULL,NULL
X Start nm Changed: 1/29/2025 3:31:00 PM, Old:  800.0, New:  700.0,NULL,NULL,NULL,NULL,NULL,NULL,NULL,NULL,NULL,NULL
X Stop nm Changed: 1/29/2025 3:31:00 PM, Old:  200.0, New:  300.0,NULL,NULL,NULL,NULL,NULL,NULL,NULL,NULL,NULL,NULL
Common Interval nm Changed: 1/29/2025 3:31:00 PM, Old:     5.00, New:     1.00,NULL,NULL,NULL,NULL,NULL,NULL,NULL,NULL,NULL,NULL
Baseline Correction Changed: 1/29/2025 3:31:00 PM, Old:0, New:2,NULL,NULL,NULL,NULL,NULL,NULL,NULL,NULL,NULL,NULL
End Method Modifications,NULL,NULL,NULL,NULL,NULL,NULL,NULL,NULL,NULL,NULL,NULL,NULL
<Current Wavelength> , 327.0,NULL,NULL,NULL,NULL,NULL,NULL,NULL,NULL,NULL,NULL,NULL
,NULL,NULL,NULL,NULL,NULL,NULL,NULL,NULL,NULL,NULL,NULL,NULL
Baseline 0%T,,NULL,NULL,NULL,NULL,NULL,NULL,NULL,NULL,NULL,NULL,NULL
Baseline 0%T,NULL,NULL,NULL,NULL,NULL,NULL,NULL,NULL,NULL,NULL,NULL,NULL
Collection Time: 1/29/2025 3:31:40 PM,NULL,NULL,NULL,NULL,NULL,NULL,NULL,NULL,NULL,NULL,NULL,NULL
Operator Name  :,NULL,NULL,NULL,NULL,NULL,NULL,NULL,NULL,NULL,NULL,NULL,NULL
Scan Version 5.1.0.1016,NULL,NULL,NULL,NULL,NULL,NULL,NULL,NULL,NULL,NULL,NULL,NULL
Parameter List :,NULL,NULL,NULL,NULL,NULL,NULL,NULL,NULL,NULL,NULL,NULL,NULL
Instrument  Cary 60,NULL,NULL,NULL,NULL,NULL,NULL,NULL,NULL,NULL,NULL,NULL,NULL
Instrument Version  2.00,NULL,NULL,NULL,NULL,NULL,NULL,NULL,NULL,NULL,NULL,NULL,NULL
Start (nm)  700.0,NULL,NULL,NULL,NULL,NULL,NULL,NULL,NULL,NULL,NULL,NULL,NULL
Stop (nm)  300.0,NULL,NULL,NULL,NULL,NULL,NULL,NULL,NULL,NULL,NULL,NULL,NULL
X Mode  Nanometers,NULL,NULL,NULL,NULL,NULL,NULL,NULL,NULL,NULL,NULL,NULL,NULL
Y Mode  Abs,NULL,NULL,NULL,NULL,NULL,NULL,NULL,NULL,NULL,NULL,NULL,NULL
UV-Vis Scan Rate (nm/min)  4800.00,NULL,NULL,NULL,NULL,NULL,NULL,NULL,NULL,NULL,NULL,NULL,NULL
UV-Vis Data Interval (nm)  1.00,NULL,NULL,NULL,NULL,NULL,NULL,NULL,NULL,NULL,NULL,NULL,NULL
UV-Vis Ave. Time (sec)  0.0125,NULL,NULL,NULL,NULL,NULL,NULL,NULL,NULL,NULL,NULL,NULL,NULL
Beam Mode  Dual Beam,NULL,NULL,NULL,NULL,NULL,NULL,NULL,NULL,NULL,NULL,NULL,NULL
Baseline Correction  On,NULL,NULL,NULL,NULL,NULL,NULL,NULL,NULL,NULL,NULL,NULL,NULL
Baseline Type  Zero/baseline correction,NULL,NULL,NULL,NULL,NULL,NULL,NULL,NULL,NULL,NULL,NULL,NULL
Baseline File Name,NULL,NULL,NULL,NULL,NULL,NULL,NULL,NULL,NULL,NULL,NULL,NULL
Baseline Std Ref File Name,NULL,NULL,NULL,NULL,NULL,NULL,NULL,NULL,NULL,NULL,NULL,NULL
Cycle Mode  Off,NULL,NULL,NULL,NULL,NULL,NULL,NULL,NULL,NULL,NULL,NULL,NULL
Method Log     :,NULL,NULL,NULL,NULL,NULL,NULL,NULL,NULL,NULL,NULL,NULL,NULL
Method Name    :,NULL,NULL,NULL,NULL,NULL,NULL,NULL,NULL,NULL,NULL,NULL,NULL
Date/Time stamp: 1/29/2025 2:33:12 PM,NULL,NULL,NULL,NULL,NULL,NULL,NULL,NULL,NULL,NULL,NULL,NULL
Method Modifications:,NULL,NULL,NULL,NULL,NULL,NULL,NULL,NULL,NULL,NULL,NULL,NULL
X Start nm Changed: 1/29/2025 3:31:00 PM, Old:  800.0, New:  700.0,NULL,NULL,NULL,NULL,NULL,NULL,NULL,NULL,NULL,NULL
X Stop nm Changed: 1/29/2025 3:31:00 PM, Old:  200.0, New:  300.0,NULL,NULL,NULL,NULL,NULL,NULL,NULL,NULL,NULL,NULL
Common Interval nm Changed: 1/29/2025 3:31:00 PM, Old:     5.00, New:     1.00,NULL,NULL,NULL,NULL,NULL,NULL,NULL,NULL,NULL,NULL
Baseline Correction Changed: 1/29/2025 3:31:00 PM, Old:0, New:2,NULL,NULL,NULL,NULL,NULL,NULL,NULL,NULL,NULL,NULL
End Method Modifications,NULL,NULL,NULL,NULL,NULL,NULL,NULL,NULL,NULL,NULL,NULL,NULL
<Current Wavelength> , 354.0,NULL,NULL,NULL,NULL,NULL,NULL,NULL,NULL,NULL,NULL,NULL
,NULL,NULL,NULL,NULL,NULL,NULL,NULL,NULL,NULL,NULL,NULL,NULL
sample5,,NULL,NULL,NULL,NULL,NULL,NULL,NULL,NULL,NULL,NULL,NULL
sample5,NULL,NULL,NULL,NULL,NULL,NULL,NULL,NULL,NULL,NULL,NULL,NULL
Collection Time: 1/29/2025 3:33:13 PM,NULL,NULL,NULL,NULL,NULL,NULL,NULL,NULL,NULL,NULL,NULL,NULL
Operator Name  :,NULL,NULL,NULL,NULL,NULL,NULL,NULL,NULL,NULL,NULL,NULL,NULL
Scan Version 5.1.0.1016,NULL,NULL,NULL,NULL,NULL,NULL,NULL,NULL,NULL,NULL,NULL,NULL
Parameter List :,NULL,NULL,NULL,NULL,NULL,NULL,NULL,NULL,NULL,NULL,NULL,NULL
Instrument  Cary 60,NULL,NULL,NULL,NULL,NULL,NULL,NULL,NULL,NULL,NULL,NULL,NULL
Instrument Version  2.00,NULL,NULL,NULL,NULL,NULL,NULL,NULL,NULL,NULL,NULL,NULL,NULL
Start (nm)  700.0,NULL,NULL,NULL,NULL,NULL,NULL,NULL,NULL,NULL,NULL,NULL,NULL
Stop (nm)  300.0,NULL,NULL,NULL,NULL,NULL,NULL,NULL,NULL,NULL,NULL,NULL,NULL
X Mode  Nanometers,NULL,NULL,NULL,NULL,NULL,NULL,NULL,NULL,NULL,NULL,NULL,NULL
Y Mode  Abs,NULL,NULL,NULL,NULL,NULL,NULL,NULL,NULL,NULL,NULL,NULL,NULL
UV-Vis Scan Rate (nm/min)  4800.00,NULL,NULL,NULL,NULL,NULL,NULL,NULL,NULL,NULL,NULL,NULL,NULL
UV-Vis Data Interval (nm)  1.00,NULL,NULL,NULL,NULL,NULL,NULL,NULL,NULL,NULL,NULL,NULL,NULL
UV-Vis Ave. Time (sec)  0.0125,NULL,NULL,NULL,NULL,NULL,NULL,NULL,NULL,NULL,NULL,NULL,NULL
Beam Mode  Dual Beam,NULL,NULL,NULL,NULL,NULL,NULL,NULL,NULL,NULL,NULL,NULL,NULL
Baseline Correction  On,NULL,NULL,NULL,NULL,NULL,NULL,NULL,NULL,NULL,NULL,NULL,NULL
Baseline Type  Zero/baseline correction,NULL,NULL,NULL,NULL,NULL,NULL,NULL,NULL,NULL,NULL,NULL,NULL
Baseline File Name,NULL,NULL,NULL,NULL,NULL,NULL,NULL,NULL,NULL,NULL,NULL,NULL
Baseline Std Ref File Name,NULL,NULL,NULL,NULL,NULL,NULL,NULL,NULL,NULL,NULL,NULL,NULL
Cycle Mode  Off,NULL,NULL,NULL,NULL,NULL,NULL,NULL,NULL,NULL,NULL,NULL,NULL
Method Log     :,NULL,NULL,NULL,NULL,NULL,NULL,NULL,NULL,NULL,NULL,NULL,NULL
Method Name    :,NULL,NULL,NULL,NULL,NULL,NULL,NULL,NULL,NULL,NULL,NULL,NULL
Date/Time stamp: 1/29/2025 2:33:12 PM,NULL,NULL,NULL,NULL,NULL,NULL,NULL,NULL,NULL,NULL,NULL,NULL
Method Modifications:,NULL,NULL,NULL,NULL,NULL,NULL,NULL,NULL,NULL,NULL,NULL,NULL
X Start nm Changed: 1/29/2025 3:31:00 PM, Old:  800.0, New:  700.0,NULL,NULL,NULL,NULL,NULL,NULL,NULL,NULL,NULL,NULL
X Stop nm Changed: 1/29/2025 3:31:00 PM, Old:  200.0, New:  300.0,NULL,NULL,NULL,NULL,NULL,NULL,NULL,NULL,NULL,NULL
Common Interval nm Changed: 1/29/2025 3:31:00 PM, Old:     5.00, New:     1.00,NULL,NULL,NULL,NULL,NULL,NULL,NULL,NULL,NULL,NULL
Baseline Correction Changed: 1/29/2025 3:31:00 PM, Old:0, New:2,NULL,NULL,NULL,NULL,NULL,NULL,NULL,NULL,NULL,NULL
End Method Modifications,NULL,NULL,NULL,NULL,NULL,NULL,NULL,NULL,NULL,NULL,NULL,NULL
<Current Wavelength> , 300.0,NULL,NULL,NULL,NULL,NULL,NULL,NULL,NULL,NULL,NULL,NULL
,NULL,NULL,NULL,NULL,NULL,NULL,NULL,NULL,NULL,NULL,NULL,NULL
sample6,,NULL,NULL,NULL,NULL,NULL,NULL,NULL,NULL,NULL,NULL,NULL
sample6,NULL,NULL,NULL,NULL,NULL,NULL,NULL,NULL,NULL,NULL,NULL,NULL
Collection Time: 1/29/2025 4:14:55 PM,NULL,NULL,NULL,NULL,NULL,NULL,NULL,NULL,NULL,NULL,NULL,NULL
Operator Name  :,NULL,NULL,NULL,NULL,NULL,NULL,NULL,NULL,NULL,NULL,NULL,NULL
Scan Version 5.1.0.1016,NULL,NULL,NULL,NULL,NULL,NULL,NULL,NULL,NULL,NULL,NULL,NULL
Parameter List :,NULL,NULL,NULL,NULL,NULL,NULL,NULL,NULL,NULL,NULL,NULL,NULL
Instrument  Cary 60,NULL,NULL,NULL,NULL,NULL,NULL,NULL,NULL,NULL,NULL,NULL,NULL
Instrument Version  2.00,NULL,NULL,NULL,NULL,NULL,NULL,NULL,NULL,NULL,NULL,NULL,NULL
Start (nm)  700.0,NULL,NULL,NULL,NULL,NULL,NULL,NULL,NULL,NULL,NULL,NULL,NULL
Stop (nm)  300.0,NULL,NULL,NULL,NULL,NULL,NULL,NULL,NULL,NULL,NULL,NULL,NULL
X Mode  Nanometers,NULL,NULL,NULL,NULL,NULL,NULL,NULL,NULL,NULL,NULL,NULL,NULL
Y Mode  Abs,NULL,NULL,NULL,NULL,NULL,NULL,NULL,NULL,NULL,NULL,NULL,NULL
UV-Vis Scan Rate (nm/min)  4800.00,NULL,NULL,NULL,NULL,NULL,NULL,NULL,NULL,NULL,NULL,NULL,NULL
UV-Vis Data Interval (nm)  1.00,NULL,NULL,NULL,NULL,NULL,NULL,NULL,NULL,NULL,NULL,NULL,NULL
UV-Vis Ave. Time (sec)  0.0125,NULL,NULL,NULL,NULL,NULL,NULL,NULL,NULL,NULL,NULL,NULL,NULL
Beam Mode  Dual Beam,NULL,NULL,NULL,NULL,NULL,NULL,NULL,NULL,NULL,NULL,NULL,NULL
Baseline Correction  On,NULL,NULL,NULL,NULL,NULL,NULL,NULL,NULL,NULL,NULL,NULL,NULL
Baseline Type  Zero/baseline correction,NULL,NULL,NULL,NULL,NULL,NULL,NULL,NULL,NULL,NULL,NULL,NULL
Baseline File Name,NULL,NULL,NULL,NULL,NULL,NULL,NULL,NULL,NULL,NULL,NULL,NULL
Baseline Std Ref File Name,NULL,NULL,NULL,NULL,NULL,NULL,NULL,NULL,NULL,NULL,NULL,NULL
Cycle Mode  Off,NULL,NULL,NULL,NULL,NULL,NULL,NULL,NULL,NULL,NULL,NULL,NULL
Method Log     :,NULL,NULL,NULL,NULL,NULL,NULL,NULL,NULL,NULL,NULL,NULL,NULL
Method Name    :,NULL,NULL,NULL,NULL,NULL,NULL,NULL,NULL,NULL,NULL,NULL,NULL
Date/Time stamp: 1/29/2025 2:33:12 PM,NULL,NULL,NULL,NULL,NULL,NULL,NULL,NULL,NULL,NULL,NULL,NULL
Method Modifications:,NULL,NULL,NULL,NULL,NULL,NULL,NULL,NULL,NULL,NULL,NULL,NULL
X Start nm Changed: 1/29/2025 3:31:00 PM, Old:  800.0, New:  700.0,NULL,NULL,NULL,NULL,NULL,NULL,NULL,NULL,NULL,NULL
X Stop nm Changed: 1/29/2025 3:31:00 PM, Old:  200.0, New:  300.0,NULL,NULL,NULL,NULL,NULL,NULL,NULL,NULL,NULL,NULL
Common Interval nm Changed: 1/29/2025 3:31:00 PM, Old:     5.00, New:     1.00,NULL,NULL,NULL,NULL,NULL,NULL,NULL,NULL,NULL,NULL
Baseline Correction Changed: 1/29/2025 3:31:00 PM, Old:0, New:2,NULL,NULL,NULL,NULL,NULL,NULL,NULL,NULL,NULL,NULL
XY Table Changed: 1/29/2025 4:01:12 PM, Old:0, New:1,NULL,NULL,NULL,NULL,NULL,NULL,NULL,NULL,NULL,NULL
End Method Modifications,NULL,NULL,NULL,NULL,NULL,NULL,NULL,NULL,NULL,NULL,NULL,NULL
<Current Wavelength> , 311.0,NULL,NULL,NULL,NULL,NULL,NULL,NULL,NULL,NULL,NULL,NULL
,NULL,NULL,NULL,NULL,NULL,NULL,NULL,NULL,NULL,NULL,NULL,NULL
sample7,,NULL,NULL,NULL,NULL,NULL,NULL,NULL,NULL,NULL,NULL,NULL
sample7,NULL,NULL,NULL,NULL,NULL,NULL,NULL,NULL,NULL,NULL,NULL,NULL
Collection Time: 1/29/2025 4:17:59 PM,NULL,NULL,NULL,NULL,NULL,NULL,NULL,NULL,NULL,NULL,NULL,NULL
Operator Name  :,NULL,NULL,NULL,NULL,NULL,NULL,NULL,NULL,NULL,NULL,NULL,NULL
Scan Version 5.1.0.1016,NULL,NULL,NULL,NULL,NULL,NULL,NULL,NULL,NULL,NULL,NULL,NULL
Parameter List :,NULL,NULL,NULL,NULL,NULL,NULL,NULL,NULL,NULL,NULL,NULL,NULL
Instrument  Cary 60,NULL,NULL,NULL,NULL,NULL,NULL,NULL,NULL,NULL,NULL,NULL,NULL
Instrument Version  2.00,NULL,NULL,NULL,NULL,NULL,NULL,NULL,NULL,NULL,NULL,NULL,NULL
Start (nm)  700.0,NULL,NULL,NULL,NULL,NULL,NULL,NULL,NULL,NULL,NULL,NULL,NULL
Stop (nm)  300.0,NULL,NULL,NULL,NULL,NULL,NULL,NULL,NULL,NULL,NULL,NULL,NULL
X Mode  Nanometers,NULL,NULL,NULL,NULL,NULL,NULL,NULL,NULL,NULL,NULL,NULL,NULL
Y Mode  Abs,NULL,NULL,NULL,NULL,NULL,NULL,NULL,NULL,NULL,NULL,NULL,NULL
UV-Vis Scan Rate (nm/min)  4800.00,NULL,NULL,NULL,NULL,NULL,NULL,NULL,NULL,NULL,NULL,NULL,NULL
UV-Vis Data Interval (nm)  1.00,NULL,NULL,NULL,NULL,NULL,NULL,NULL,NULL,NULL,NULL,NULL,NULL
UV-Vis Ave. Time (sec)  0.0125,NULL,NULL,NULL,NULL,NULL,NULL,NULL,NULL,NULL,NULL,NULL,NULL
Beam Mode  Dual Beam,NULL,NULL,NULL,NULL,NULL,NULL,NULL,NULL,NULL,NULL,NULL,NULL
Baseline Correction  On,NULL,NULL,NULL,NULL,NULL,NULL,NULL,NULL,NULL,NULL,NULL,NULL
Baseline Type  Zero/baseline correction,NULL,NULL,NULL,NULL,NULL,NULL,NULL,NULL,NULL,NULL,NULL,NULL
Baseline File Name,NULL,NULL,NULL,NULL,NULL,NULL,NULL,NULL,NULL,NULL,NULL,NULL
Baseline Std Ref File Name,NULL,NULL,NULL,NULL,NULL,NULL,NULL,NULL,NULL,NULL,NULL,NULL
Cycle Mode  Off,NULL,NULL,NULL,NULL,NULL,NULL,NULL,NULL,NULL,NULL,NULL,NULL
Method Log     :,NULL,NULL,NULL,NULL,NULL,NULL,NULL,NULL,NULL,NULL,NULL,NULL
Method Name    :,NULL,NULL,NULL,NULL,NULL,NULL,NULL,NULL,NULL,NULL,NULL,NULL
Date/Time stamp: 1/29/2025 2:33:12 PM,NULL,NULL,NULL,NULL,NULL,NULL,NULL,NULL,NULL,NULL,NULL,NULL
Method Modifications:,NULL,NULL,NULL,NULL,NULL,NULL,NULL,NULL,NULL,NULL,NULL,NULL
X Start nm Changed: 1/29/2025 3:31:00 PM, Old:  800.0, New:  700.0,NULL,NULL,NULL,NULL,NULL,NULL,NULL,NULL,NULL,NULL
X Stop nm Changed: 1/29/2025 3:31:00 PM, Old:  200.0, New:  300.0,NULL,NULL,NULL,NULL,NULL,NULL,NULL,NULL,NULL,NULL
Common Interval nm Changed: 1/29/2025 3:31:00 PM, Old:     5.00, New:     1.00,NULL,NULL,NULL,NULL,NULL,NULL,NULL,NULL,NULL,NULL
Baseline Correction Changed: 1/29/2025 3:31:00 PM, Old:0, New:2,NULL,NULL,NULL,NULL,NULL,NULL,NULL,NULL,NULL,NULL
XY Table Changed: 1/29/2025 4:01:12 PM, Old:0, New:1,NULL,NULL,NULL,NULL,NULL,NULL,NULL,NULL,NULL,NULL
End Method Modifications,NULL,NULL,NULL,NULL,NULL,NULL,NULL,NULL,NULL,NULL,NULL,NULL
<Current Wavelength> , 335.0,NULL,NULL,NULL,NULL,NULL,NULL,NULL,NULL,NULL,NULL,NULL
,NULL,NULL,NULL,NULL,NULL,NULL,NULL,NULL,NULL,NULL,NULL,NULL
sample8,,NULL,NULL,NULL,NULL,NULL,NULL,NULL,NULL,NULL,NULL,NULL
sample8,NULL,NULL,NULL,NULL,NULL,NULL,NULL,NULL,NULL,NULL,NULL,NULL
Collection Time: 1/29/2025 4:20:42 PM,NULL,NULL,NULL,NULL,NULL,NULL,NULL,NULL,NULL,NULL,NULL,NULL
Operator Name  :,NULL,NULL,NULL,NULL,NULL,NULL,NULL,NULL,NULL,NULL,NULL,NULL
Scan Version 5.1.0.1016,NULL,NULL,NULL,NULL,NULL,NULL,NULL,NULL,NULL,NULL,NULL,NULL
Parameter List :,NULL,NULL,NULL,NULL,NULL,NULL,NULL,NULL,NULL,NULL,NULL,NULL
Instrument  Cary 60,NULL,NULL,NULL,NULL,NULL,NULL,NULL,NULL,NULL,NULL,NULL,NULL
Instrument Version  2.00,NULL,NULL,NULL,NULL,NULL,NULL,NULL,NULL,NULL,NULL,NULL,NULL
Start (nm)  700.0,NULL,NULL,NULL,NULL,NULL,NULL,NULL,NULL,NULL,NULL,NULL,NULL
Stop (nm)  300.0,NULL,NULL,NULL,NULL,NULL,NULL,NULL,NULL,NULL,NULL,NULL,NULL
X Mode  Nanometers,NULL,NULL,NULL,NULL,NULL,NULL,NULL,NULL,NULL,NULL,NULL,NULL
Y Mode  Abs,NULL,NULL,NULL,NULL,NULL,NULL,NULL,NULL,NULL,NULL,NULL,NULL
UV-Vis Scan Rate (nm/min)  4800.00,NULL,NULL,NULL,NULL,NULL,NULL,NULL,NULL,NULL,NULL,NULL,NULL
UV-Vis Data Interval (nm)  1.00,NULL,NULL,NULL,NULL,NULL,NULL,NULL,NULL,NULL,NULL,NULL,NULL
UV-Vis Ave. Time (sec)  0.0125,NULL,NULL,NULL,NULL,NULL,NULL,NULL,NULL,NULL,NULL,NULL,NULL
Beam Mode  Dual Beam,NULL,NULL,NULL,NULL,NULL,NULL,NULL,NULL,NULL,NULL,NULL,NULL
Baseline Correction  On,NULL,NULL,NULL,NULL,NULL,NULL,NULL,NULL,NULL,NULL,NULL,NULL
Baseline Type  Zero/baseline correction,NULL,NULL,NULL,NULL,NULL,NULL,NULL,NULL,NULL,NULL,NULL,NULL
Baseline File Name,NULL,NULL,NULL,NULL,NULL,NULL,NULL,NULL,NULL,NULL,NULL,NULL
Baseline Std Ref File Name,NULL,NULL,NULL,NULL,NULL,NULL,NULL,NULL,NULL,NULL,NULL,NULL
Cycle Mode  Off,NULL,NULL,NULL,NULL,NULL,NULL,NULL,NULL,NULL,NULL,NULL,NULL
Method Log     :,NULL,NULL,NULL,NULL,NULL,NULL,NULL,NULL,NULL,NULL,NULL,NULL
Method Name    :,NULL,NULL,NULL,NULL,NULL,NULL,NULL,NULL,NULL,NULL,NULL,NULL
Date/Time stamp: 1/29/2025 2:33:12 PM,NULL,NULL,NULL,NULL,NULL,NULL,NULL,NULL,NULL,NULL,NULL,NULL
Method Modifications:,NULL,NULL,NULL,NULL,NULL,NULL,NULL,NULL,NULL,NULL,NULL,NULL
X Start nm Changed: 1/29/2025 3:31:00 PM, Old:  800.0, New:  700.0,NULL,NULL,NULL,NULL,NULL,NULL,NULL,NULL,NULL,NULL
X Stop nm Changed: 1/29/2025 3:31:00 PM, Old:  200.0, New:  300.0,NULL,NULL,NULL,NULL,NULL,NULL,NULL,NULL,NULL,NULL
Common Interval nm Changed: 1/29/2025 3:31:00 PM, Old:     5.00, New:     1.00,NULL,NULL,NULL,NULL,NULL,NULL,NULL,NULL,NULL,NULL
Baseline Correction Changed: 1/29/2025 3:31:00 PM, Old:0, New:2,NULL,NULL,NULL,NULL,NULL,NULL,NULL,NULL,NULL,NULL
XY Table Changed: 1/29/2025 4:01:12 PM, Old:0, New:1,NULL,NULL,NULL,NULL,NULL,NULL,NULL,NULL,NULL,NULL
End Method Modifications,NULL,NULL,NULL,NULL,NULL,NULL,NULL,NULL,NULL,NULL,NULL,NULL
<Current Wavelength> , 346.0,NULL,NULL,NULL,NULL,NULL,NULL,NULL,NULL,NULL,NULL,NULL
,NULL,NULL,NULL,NULL,NULL,NULL,NULL,NULL,NULL,NULL,NULL,NULL
