Wavelength (nm),Intensity (a.u.)
698.9988403,0.004543738905
697.991333,0.004057233222
696.9835205,0.004166204482
696.0114136,0.004316404928
695.0029297,0.003942359705
693.9941406,0.003658766858
692.9850464,0.00501471106
692.0117188,0.004131654743
691.0018921,0.004556791857
689.9918213,0.004179168027
689.0174561,0.004140148405
688.0067139,0.004684597719
686.9957275,0.004018746782
685.984314,0.00471694069
685.008728,0.004135835916
683.9967041,0.004205096047
682.984436,0.004221144598
682.0079346,0.004395238124
680.9949341,0.004107273184
680.0178833,0.004503561649
679.0042114,0.004783597309
677.9903564,0.005261458922
677.0123291,0.005075730383
675.9978027,0.004959565587
674.9829102,0.00482353894
674.0039673,0.005288316403
672.9885254,0.003821823047
672.0089111,0.004375861958
670.9928589,0.004518601578
670.0126343,0.004731412511
668.9959717,0.004241324496
668.0151978,0.004147648811
666.9978638,0.005054490641
666.0165405,0.004509708378
664.9985352,0.004461792763
664.0166016,0.00487508066
662.9979858,0.005100768991
662.0155029,0.004869216587
660.9962769,0.004829847254
660.0131226,0.004820057657
658.9933472,0.004492916632
658.0097046,0.004658771679
656.9891968,0.00440805126
656.0049438,0.005137805827
654.9838867,0.005354746245
653.9990234,0.005526122171
653.013855,0.005322119687
651.9918823,0.004971426912
651.0061646,0.004925607238
649.9835205,0.005190642551
648.9972534,0.005051033571
648.0106812,0.005094456952
646.9871216,0.004664580338
646,0.005359752104
645.0125122,0.004981481936
643.9881592,0.005153862759
643.0001221,0.004901495297
642.0117188,0.005637534428
640.9865112,0.005617316347
639.9976196,0.005658803042
639.0083618,0.005730587989
637.9823608,0.005940923002
636.9925537,0.005515897647
636.0024414,0.005630480591
635.012146,0.005845437292
633.9848633,0.005293347407
632.9939575,0.005446638446
632.0028076,0.006843763404
631.0113525,0.005874193739
629.9828491,0.005561569706
628.9909058,0.006240768824
627.9985352,0.005939191207
627.0059814,0.006475234404
626.0131836,0.00618323544
624.9832764,0.006225327495
623.9898682,0.005953860935
622.9961548,0.005885318853
622.0022583,0.00596010685
621.0079956,0.006131118163
620.0135498,0.006087433547
618.9818726,0.006173914298
617.9868164,0.005945515819
616.9915771,0.006603080314
615.9959717,0.006436795928
615.000061,0.006579557899
614.0039673,0.006767455954
613.0075684,0.006570543628
612.0108032,0.006780418567
611.013855,0.006368939299
610.0167236,0.006689163856
608.9822998,0.006663718261
607.9844971,0.006598296575
606.9865112,0.006746212021
605.9881592,0.006962458603
604.9896851,0.007043378428
603.9908447,0.00669957418
602.9918213,0.007367576007
601.9923706,0.007413417101
600.9927979,0.007177918218
599.9929199,0.007896054536
598.9927368,0.006945597939
597.9923096,0.007070056628
596.9916382,0.007156996056
595.9907837,0.007422922645
594.989502,0.00769032957
593.9880981,0.00733669335
592.9863892,0.00713094417
591.984375,0.007487889379
590.9821777,0.007624226622
590.0167847,0.007391299121
589.0140381,0.007974274457
588.0109863,0.007719788235
587.0077515,0.007772439159
586.0042114,0.007905834354
585.0004883,0.00799299404
583.99646,0.008448006585
582.9921265,0.008213397115
581.9876099,0.008229489438
580.9827881,0.008361574262
580.0149536,0.008826483041
579.0095825,0.008941916749
578.0040283,0.008739975281
576.998291,0.008822150528
575.9921875,0.008772780187
574.9858398,0.00856228359
574.0165405,0.008938508108
573.0097656,0.009325452149
572.0026855,0.009063353762
570.9953003,0.009253519587
569.987793,0.009324816987
569.0172729,0.009438768961
568.0092163,0.009455806576
567.0009155,0.00966782216
565.9923096,0.009776383638
564.9835205,0.009692173451
564.0118408,0.009916592389
563.0025635,0.01007745881
561.992981,0.01035019103
560.9831543,0.01018130034
560.0105591,0.01048719138
559.0003662,0.01039303374
557.9898071,0.01065580267
557.0164795,0.01072496921
556.0054321,0.01097177155
554.9942017,0.01140092406
553.9827271,0.01120939013
553.0084839,0.01157156564
551.99646,0.01200873591
550.9842529,0.01228947379
550.0092773,0.01224186458
548.9966431,0.01250173245
547.9837036,0.01311314199
547.0081177,0.0136541659
545.9946289,0.01378080249
545.0185547,0.01403362583
544.0046997,0.01470265072
542.9906006,0.01543415245
542.013855,0.01614142023
540.9992065,0.01670062356
539.984436,0.01755728945
539.006897,0.01851429045
537.9916992,0.01936287805
537.0137939,0.02080274932
535.9980469,0.02207279392
534.9819946,0.02332386374
534.003418,0.0250300318
532.9869995,0.02674491145
532.0079956,0.02898002043
530.9911499,0.03159006312
530.0116577,0.03478509933
528.9942627,0.03930164501
528.0144043,0.04343928397
526.996582,0.0472516492
526.0162354,0.05480419844
524.9979858,0.06254055351
524.0172119,0.07186874002
522.9984741,0.08391052485
522.0172729,0.0967650339
520.9981079,0.1130801588
520.0164795,0.1343921423
518.9968262,0.1625906825
518.0147705,0.1887222677
516.9946899,0.2182408869
516.0122681,0.2576458454
514.9916382,0.3034852743
514.008728,0.3609252274
512.9877319,0.4323011041
512.0043945,0.5022189617
510.9830017,0.579046607
509.9992065,0.6728656888
509.0152283,0.7835035324
507.9931641,0.9053698182
507.0087585,1.049554944
505.9862366,1.184202194
505.0014343,1.338373184
504.0163879,1.514870524
502.9932556,1.697097301
502.007782,1.905504346
500.9841919,2.072708368
499.9983521,2.247279167
499.0122681,2.417804956
497.9880371,2.500761509
497.0015259,2.59418416
496.0148315,2.728811502
494.9899597,2.819662571
494.0028992,2.756625414
493.015564,2.804586172
491.9900513,2.875649929
491.0023499,2.99128437
490.0144653,2.960199356
488.9882813,2.908789873
487.9999695,2.934272766
487.0114136,2.925246954
485.9846802,2.958467007
484.9957581,2.934854269
484.0066223,2.920086622
483.0173035,2.889009953
481.9897156,2.840007782
481.0000305,2.726960897
480.0101013,2.662944555
478.9818115,2.602241039
477.9915466,2.550802946
477.0010376,2.476553917
476.0103455,2.36517787
474.9813538,2.257246017
473.9902344,2.164447069
472.9989014,2.05994916
472.0074158,1.980747104
471.0157471,1.906411767
469.9857483,1.816476226
468.9936829,1.759372115
468.0014343,1.6987288
467.0089111,1.648900032
466.0162964,1.604729176
464.9852905,1.561529875
463.9921875,1.52524364
462.9989929,1.483604431
462.0056458,1.444924235
461.0120544,1.411301374
460.018158,1.37196219
458.9860229,1.337530494
457.9918213,1.293921471
456.9974365,1.24525249
456.0029297,1.202628016
455.0082397,1.156162262
454.0132751,1.109992981
453.018219,1.061417818
451.9846191,1.007349849
450.9891663,0.9574739933
449.9935303,0.907047987
448.9976807,0.8581576347
448.0016479,0.8112537265
447.0054321,0.7626376748
446.0090637,0.7134532332
445.0124512,0.6719593406
444.0157471,0.6350423098
443.0187988,0.5970118046
441.9833069,0.5590005517
440.9859619,0.5232374668
439.9885254,0.4931415319
438.9908447,0.4700311124
437.992981,0.4439723492
436.9950256,0.421030581
435.9967957,0.3978622854
434.9984436,0.3781326711
433.9998474,0.3604914248
433.0011597,0.3441223204
432.0022888,0.3288651407
431.0032043,0.3130941987
430.0039368,0.2966372669
429.0045166,0.2837565839
428.0048828,0.2704539895
427.0050964,0.2582965493
426.005127,0.2448525578
425.0050354,0.2319696397
424.0047302,0.2205668092
423.0042725,0.2094234377
422.0036316,0.1996695548
421.0028076,0.1887911111
420.0018005,0.1783923954
419.0006104,0.1695907414
417.9993286,0.1600029022
416.9978027,0.1519863307
415.9961243,0.1444997638
414.9942932,0.1372760087
413.9923096,0.1309929043
412.9901123,0.1253423244
411.9877319,0.1204776913
410.9852295,0.1162315533
409.9825745,0.112299338
409.01828,0.1090058684
408.0152283,0.1061138585
407.0120544,0.1036479324
406.0087585,0.1017170325
405.005249,0.09993539751
404.0015259,0.098415941
402.9976807,0.09685908258
401.9936829,0.09616442025
400.989502,0.09519918263
399.985199,0.09430062771
399.0193481,0.09335456789
398.014679,0.09297224879
397.0098877,0.09254659712
396.0049133,0.09198165685
394.9997559,0.09158423543
393.9944763,0.09121771157
392.9889832,0.09068467468
391.9833679,0.09116706252
391.0162964,0.09080743045
390.0103455,0.09064500034
389.0042725,0.09116090089
387.9980164,0.09155058116
386.9916077,0.09124204516
385.9850464,0.09202481806
385.0170288,0.09241335094
384.0101929,0.09234511107
383.0031433,0.09272611886
381.9959717,0.0932058692
380.9886169,0.09301210195
379.9811401,0.09321100265
379.0122375,0.09342379868
378.004425,0.09331975132
376.99646,0.09220066667
375.9883728,0.09163238108
375.0188904,0.0910975188
374.0104675,0.09066863358
373.0019226,0.0898232609
371.9931946,0.0881094411
370.9843445,0.0876506716
370.0140991,0.08627897501
369.0049438,0.08569964021
367.995636,0.08511377871
366.9862061,0.083617948
366.0154419,0.08246856183
365.0056458,0.08193027228
363.9957886,0.08062835038
362.9856873,0.07982533425
362.0143433,0.0790676102
361.0040283,0.07709223032
359.9935303,0.07723856717
358.9828796,0.07638952881
358.0109558,0.07682879269
357.000061,0.07616921514
355.9889832,0.07654239982
355.0166626,0.07589521259
354.0053406,0.07723482698
352.9938049,0.07808062434
351.9822083,0.0801319629
351.0093079,0.08176465333
349.9973755,0.08442851901
348.985321,0.08749656379
348.0120544,0.09122620523
346.9997253,0.09674617648
345.9872131,0.1022275016
345.0135498,0.1079492196
344.0007935,0.11407087
342.987854,0.1221685112
342.0137939,0.131539315
341.0006409,0.1425271183
339.9873352,0.1519039124
339.0128479,0.1640475839
337.9992676,0.1768598855
336.9855347,0.1911903173
336.0106812,0.2065942585
334.9967041,0.2194592655
333.9825439,0.2336917371
333.0072937,0.2505701482
331.9928894,0.266263634
331.017395,0.2819277048
330.0027466,0.295866996
328.987915,0.3106457591
328.0120239,0.3257578611
326.9969788,0.3403387368
325.981781,0.3533684015
325.0055237,0.3635271192
323.9900818,0.3728578389
323.0135193,0.3786489964
321.9978333,0.3834334016
320.9819946,0.3848689795
320.0050964,0.382563442
318.9889832,0.3770627975
318.0118408,0.3688093126
316.9954834,0.3585178554
316.0180969,0.3436528444
315.0014954,0.3296580315
313.9847412,0.3170456588
313.0069885,0.3057515025
311.9900208,0.2928618491
311.0120544,0.2810654938
309.9947815,0.2743990719
309.0165405,0.2673616707
307.9990845,0.2613098323
306.9814453,0.2579317093
306.0028687,0.2564093471
304.9849854,0.2566144764
304.0061951,0.2588684261
302.9880981,0.2628251314
302.0090332,0.2706917524
300.9906616,0.2782654762
300.0113831,0.2893362939
