Wavelength (nm),Intensity (a.u.)
300.0113831,0.2893362939
300.9906616,0.2782654762
302.0090332,0.2706917524
302.9880981,0.2628251314
304.0061951,0.2588684261
304.9849854,0.2566144764
306.0028687,0.2564093471
306.9814453,0.2579317093
307.9990845,0.2613098323
309.0165405,0.2673616707
309.9947815,0.2743990719
311.0120544,0.2810654938
311.9900208,0.2928618491
313.0069885,0.3057515025
313.9847412,0.3170456588
315.0014954,0.3296580315
316.0180969,0.3436528444
316.9954834,0.3585178554
318.0118408,0.3688093126
318.9889832,0.3770627975
320.0050964,0.382563442
320.9819946,0.3848689795
321.9978333,0.3834334016
323.0135193,0.3786489964
323.9900818,0.3728578389
325.0055237,0.3635271192
325.981781,0.3533684015
326.9969788,0.3403387368
328.0120239,0.3257578611
328.987915,0.3106457591
330.0027466,0.295866996
331.017395,0.2819277048
331.9928894,0.266263634
333.0072937,0.2505701482
333.9825439,0.2336917371
334.9967041,0.2194592655
336.0106812,0.2065942585
336.9855347,0.1911903173
337.9992676,0.1768598855
339.0128479,0.1640475839
339.9873352,0.1519039124
341.0006409,0.1425271183
342.0137939,0.131539315
342.987854,0.1221685112
344.0007935,0.11407087
345.0135498,0.1079492196
345.9872131,0.1022275016
346.9997253,0.09674617648
348.0120544,0.09122620523
348.985321,0.08749656379
349.9973755,0.08442851901
351.0093079,0.08176465333
351.9822083,0.0801319629
352.9938049,0.07808062434
354.0053406,0.07723482698
355.0166626,0.07589521259
355.9889832,0.07654239982
357.000061,0.07616921514
358.0109558,0.07682879269
358.9828796,0.07638952881
359.9935303,0.07723856717
361.0040283,0.07709223032
362.0143433,0.0790676102
362.9856873,0.07982533425
363.9957886,0.08062835038
365.0056458,0.08193027228
366.0154419,0.08246856183
366.9862061,0.083617948
367.995636,0.08511377871
369.0049438,0.08569964021
370.0140991,0.08627897501
370.9843445,0.0876506716
371.9931946,0.0881094411
373.0019226,0.0898232609
374.0104675,0.09066863358
375.0188904,0.0910975188
375.9883728,0.09163238108
376.99646,0.09220066667
378.004425,0.09331975132
379.0122375,0.09342379868
379.9811401,0.09321100265
380.9886169,0.09301210195
381.9959717,0.0932058692
383.0031433,0.09272611886
384.0101929,0.09234511107
385.0170288,0.09241335094
385.9850464,0.09202481806
386.9916077,0.09124204516
387.9980164,0.09155058116
389.0042725,0.09116090089
390.0103455,0.09064500034
391.0162964,0.09080743045
391.9833679,0.09116706252
392.9889832,0.09068467468
393.9944763,0.09121771157
394.9997559,0.09158423543
396.0049133,0.09198165685
397.0098877,0.09254659712
398.014679,0.09297224879
399.0193481,0.09335456789
399.985199,0.09430062771
400.989502,0.09519918263
401.9936829,0.09616442025
402.9976807,0.09685908258
404.0015259,0.098415941
405.005249,0.09993539751
406.0087585,0.1017170325
407.0120544,0.1036479324
408.0152283,0.1061138585
409.01828,0.1090058684
409.9825745,0.112299338
410.9852295,0.1162315533
411.9877319,0.1204776913
412.9901123,0.1253423244
413.9923096,0.1309929043
414.9942932,0.1372760087
415.9961243,0.1444997638
416.9978027,0.1519863307
417.9993286,0.1600029022
419.0006104,0.1695907414
420.0018005,0.1783923954
421.0028076,0.1887911111
422.0036316,0.1996695548
423.0042725,0.2094234377
424.0047302,0.2205668092
425.0050354,0.2319696397
426.005127,0.2448525578
427.0050964,0.2582965493
428.0048828,0.2704539895
429.0045166,0.2837565839
430.0039368,0.2966372669
431.0032043,0.3130941987
432.0022888,0.3288651407
433.0011597,0.3441223204
433.9998474,0.3604914248
434.9984436,0.3781326711
435.9967957,0.3978622854
436.9950256,0.421030581
437.992981,0.4439723492
438.9908447,0.4700311124
439.9885254,0.4931415319
440.9859619,0.5232374668
441.9833069,0.5590005517
443.0187988,0.5970118046
444.0157471,0.6350423098
445.0124512,0.6719593406
446.0090637,0.7134532332
447.0054321,0.7626376748
448.0016479,0.8112537265
448.9976807,0.8581576347
449.9935303,0.907047987
450.9891663,0.9574739933
451.9846191,1.007349849
453.018219,1.061417818
454.0132751,1.109992981
455.0082397,1.156162262
456.0029297,1.202628016
456.9974365,1.24525249
457.9918213,1.293921471
458.9860229,1.337530494
460.018158,1.37196219
461.0120544,1.411301374
462.0056458,1.444924235
462.9989929,1.483604431
463.9921875,1.52524364
464.9852905,1.561529875
466.0162964,1.604729176
467.0089111,1.648900032
468.0014343,1.6987288
468.9936829,1.759372115
469.9857483,1.816476226
471.0157471,1.906411767
472.0074158,1.980747104
472.9989014,2.05994916
473.9902344,2.164447069
474.9813538,2.257246017
476.0103455,2.36517787
477.0010376,2.476553917
477.9915466,2.550802946
478.9818115,2.602241039
480.0101013,2.662944555
481.0000305,2.726960897
481.9897156,2.840007782
483.0173035,2.889009953
484.0066223,2.920086622
484.9957581,2.934854269
485.9846802,2.958467007
487.0114136,2.925246954
487.9999695,2.934272766
488.9882813,2.908789873
490.0144653,2.960199356
491.0023499,2.99128437
491.9900513,2.875649929
493.015564,2.804586172
494.0028992,2.756625414
494.9899597,2.819662571
496.0148315,2.728811502
497.0015259,2.59418416
497.9880371,2.500761509
499.0122681,2.417804956
499.9983521,2.247279167
500.9841919,2.072708368
502.007782,1.905504346
502.9932556,1.697097301
504.0163879,1.514870524
505.0014343,1.338373184
505.9862366,1.184202194
507.0087585,1.049554944
507.9931641,0.9053698182
509.0152283,0.7835035324
509.9992065,0.6728656888
510.9830017,0.579046607
512.0043945,0.5022189617
512.9877319,0.4323011041
514.008728,0.3609252274
514.9916382,0.3034852743
516.0122681,0.2576458454
516.9946899,0.2182408869
518.0147705,0.1887222677
518.9968262,0.1625906825
520.0164795,0.1343921423
520.9981079,0.1130801588
522.0172729,0.0967650339
522.9984741,0.08391052485
524.0172119,0.07186874002
524.9979858,0.06254055351
526.0162354,0.05480419844
526.996582,0.0472516492
528.0144043,0.04343928397
528.9942627,0.03930164501
530.0116577,0.03478509933
530.9911499,0.03159006312
532.0079956,0.02898002043
532.9869995,0.02674491145
534.003418,0.0250300318
534.9819946,0.02332386374
535.9980469,0.02207279392
537.0137939,0.02080274932
537.9916992,0.01936287805
539.006897,0.01851429045
539.984436,0.01755728945
540.9992065,0.01670062356
542.013855,0.01614142023
542.9906006,0.01543415245
544.0046997,0.01470265072
545.0185547,0.01403362583
545.9946289,0.01378080249
547.0081177,0.0136541659
547.9837036,0.01311314199
548.9966431,0.01250173245
550.0092773,0.01224186458
550.9842529,0.01228947379
551.99646,0.01200873591
553.0084839,0.01157156564
553.9827271,0.01120939013
554.9942017,0.01140092406
556.0054321,0.01097177155
557.0164795,0.01072496921
557.9898071,0.01065580267
559.0003662,0.01039303374
560.0105591,0.01048719138
560.9831543,0.01018130034
561.992981,0.01035019103
563.0025635,0.01007745881
564.0118408,0.009916592389
564.9835205,0.009692173451
565.9923096,0.009776383638
567.0009155,0.00966782216
568.0092163,0.009455806576
569.0172729,0.009438768961
569.987793,0.009324816987
570.9953003,0.009253519587
572.0026855,0.009063353762
573.0097656,0.009325452149
574.0165405,0.008938508108
574.9858398,0.00856228359
575.9921875,0.008772780187
576.998291,0.008822150528
578.0040283,0.008739975281
579.0095825,0.008941916749
580.0149536,0.008826483041
580.9827881,0.008361574262
581.9876099,0.008229489438
582.9921265,0.008213397115
583.99646,0.008448006585
585.0004883,0.00799299404
586.0042114,0.007905834354
587.0077515,0.007772439159
588.0109863,0.007719788235
589.0140381,0.007974274457
590.0167847,0.007391299121
590.9821777,0.007624226622
591.984375,0.007487889379
592.9863892,0.00713094417
593.9880981,0.00733669335
594.989502,0.00769032957
595.9907837,0.007422922645
596.9916382,0.007156996056
597.9923096,0.007070056628
598.9927368,0.006945597939
599.9929199,0.007896054536
600.9927979,0.007177918218
601.9923706,0.007413417101
602.9918213,0.007367576007
603.9908447,0.00669957418
604.9896851,0.007043378428
605.9881592,0.006962458603
606.9865112,0.006746212021
607.9844971,0.006598296575
608.9822998,0.006663718261
610.0167236,0.006689163856
611.013855,0.006368939299
612.0108032,0.006780418567
613.0075684,0.006570543628
614.0039673,0.006767455954
615.000061,0.006579557899
615.9959717,0.006436795928
616.9915771,0.006603080314
617.9868164,0.005945515819
618.9818726,0.006173914298
620.0135498,0.006087433547
621.0079956,0.006131118163
622.0022583,0.00596010685
622.9961548,0.005885318853
623.9898682,0.005953860935
624.9832764,0.006225327495
626.0131836,0.00618323544
627.0059814,0.006475234404
627.9985352,0.005939191207
628.9909058,0.006240768824
629.9828491,0.005561569706
631.0113525,0.005874193739
632.0028076,0.006843763404
632.9939575,0.005446638446
633.9848633,0.005293347407
635.012146,0.005845437292
636.0024414,0.005630480591
636.9925537,0.005515897647
637.9823608,0.005940923002
639.0083618,0.005730587989
639.9976196,0.005658803042
640.9865112,0.005617316347
642.0117188,0.005637534428
643.0001221,0.004901495297
643.9881592,0.005153862759
645.0125122,0.004981481936
646,0.005359752104
646.9871216,0.004664580338
648.0106812,0.005094456952
648.9972534,0.005051033571
649.9835205,0.005190642551
651.0061646,0.004925607238
651.9918823,0.004971426912
653.013855,0.005322119687
653.9990234,0.005526122171
654.9838867,0.005354746245
656.0049438,0.005137805827
656.9891968,0.00440805126
658.0097046,0.004658771679
658.9933472,0.004492916632
660.0131226,0.004820057657
660.9962769,0.004829847254
662.0155029,0.004869216587
662.9979858,0.005100768991
664.0166016,0.00487508066
664.9985352,0.004461792763
666.0165405,0.004509708378
666.9978638,0.005054490641
668.0151978,0.004147648811
668.9959717,0.004241324496
670.0126343,0.004731412511
670.9928589,0.004518601578
672.0089111,0.004375861958
672.9885254,0.003821823047
674.0039673,0.005288316403
674.9829102,0.00482353894
675.9978027,0.004959565587
677.0123291,0.005075730383
677.9903564,0.005261458922
679.0042114,0.004783597309
680.0178833,0.004503561649
680.9949341,0.004107273184
682.0079346,0.004395238124
682.984436,0.004221144598
683.9967041,0.004205096047
685.008728,0.004135835916
685.984314,0.00471694069
686.9957275,0.004018746782
688.0067139,0.004684597719
689.0174561,0.004140148405
689.9918213,0.004179168027
691.0018921,0.004556791857
692.0117188,0.004131654743
692.9850464,0.00501471106
693.9941406,0.003658766858
695.0029297,0.003942359705
696.0114136,0.004316404928
696.9835205,0.004166204482
697.991333,0.004057233222
698.9988403,0.004543738905

