Wavelength (nm),Intensity (a.u.)
300.0113831,0.2049974352
300.9906616,0.2126580477
302.0090332,0.2214888483
302.9880981,0.2299128026
304.0061951,0.2382056862
304.9849854,0.2453862131
306.0028687,0.2526379228
306.9814453,0.2610326707
307.9990845,0.2685697675
309.0165405,0.2757132649
309.9947815,0.2822917104
311.0120544,0.2872146964
311.9900208,0.2922527194
313.0069885,0.2954573035
313.9847412,0.2981699109
315.0014954,0.299956888
316.0180969,0.2997443974
316.9954834,0.299018234
318.0118408,0.2966521978
318.9889832,0.2948164046
320.0050964,0.2926154435
320.9819946,0.2900653183
321.9978333,0.2873427868
323.0135193,0.2853211164
323.9900818,0.2862091362
325.0055237,0.2862661779
325.981781,0.2875470221
326.9969788,0.2914310098
328.0120239,0.2949438691
328.987915,0.3004064262
330.0027466,0.3062973619
331.017395,0.3117585778
331.9928894,0.3183495998
333.0072937,0.3256333768
333.9825439,0.3330039382
334.9967041,0.3387187719
336.0106812,0.3444084823
336.9855347,0.3507803977
337.9992676,0.3561413586
339.0128479,0.3609116375
339.9873352,0.3647219837
341.0006409,0.3690538108
342.0137939,0.3708217442
342.987854,0.3731933534
344.0007935,0.3747029006
345.0135498,0.375353545
345.9872131,0.3756251335
346.9997253,0.3746656775
348.0120544,0.3724626899
348.985321,0.3705355823
349.9973755,0.3663406968
351.0093079,0.3627509773
351.9822083,0.3569065928
352.9938049,0.3505063057
354.0053406,0.3435464203
355.0166626,0.3352465034
355.9889832,0.3263498247
357.000061,0.3187174499
358.0109558,0.3065130413
358.9828796,0.2949771583
359.9935303,0.2817614973
361.0040283,0.2721625865
362.0143433,0.2612149119
362.9856873,0.2470924407
363.9957886,0.2331432402
365.0056458,0.2199927568
366.0154419,0.208042413
366.9862061,0.1961787343
367.995636,0.1824296266
369.0049438,0.1688295454
370.0140991,0.157494545
370.9843445,0.1489279717
371.9931946,0.1362943947
373.0019226,0.125195846
374.0104675,0.1146325395
375.0188904,0.1053826362
375.9883728,0.09605757892
376.99646,0.08870542794
378.004425,0.0808762908
379.0122375,0.07232103497
379.9811401,0.064939484
380.9886169,0.05912732333
381.9959717,0.05285700411
383.0031433,0.04759231582
384.0101929,0.04223902151
385.0170288,0.03761449084
385.9850464,0.03366462141
386.9916077,0.03071329556
387.9980164,0.02701658197
389.0042725,0.02365834638
390.0103455,0.02068659104
391.0162964,0.01916520484
391.9833679,0.01678894646
392.9889832,0.01480505895
393.9944763,0.01329262555
394.9997559,0.01165757701
396.0049133,0.01025706995
397.0098877,0.009263092652
398.014679,0.007844574749
399.0193481,0.007358045317
399.985199,0.006614802405
400.989502,0.005547673441
401.9936829,0.005030449945
402.9976807,0.004627427086
404.0015259,0.003974830266
405.005249,0.003692652564
406.0087585,0.003249007976
407.0120544,0.003045889549
408.0152283,0.002918252489
409.01828,0.002477610717
409.9825745,0.002416461008
410.9852295,0.002170439111
411.9877319,0.001908306498
412.9901123,0.001828104025
413.9923096,0.001716131344
414.9942932,0.001533341012
415.9961243,0.001440143562
416.9978027,0.00148351898
417.9993286,0.001416925341
419.0006104,0.001363818767
420.0018005,0.001158932457
421.0028076,0.001462791697
422.0036316,0.001309628249
423.0042725,0.001268554828
424.0047302,0.001200203085
425.0050354,0.001323363511
426.005127,0.0009951605462
427.0050964,0.001295166439
428.0048828,0.001049130224
429.0045166,0.00108883332
430.0039368,0.001092077233
431.0032043,0.001017214614
432.0022888,0.0008879675297
433.0011597,0.0008523029392
433.9998474,0.001077648601
434.9984436,0.001090753707
435.9967957,0.001014438341
436.9950256,0.001056162291
437.992981,0.0008560119313
438.9908447,0.0007195785875
439.9885254,0.001153430087
440.9859619,0.001044407603
441.9833069,0.001185589237
443.0187988,0.001038413495
444.0157471,0.0009710319573
445.0124512,0.000789177313
446.0090637,0.0009959129384
447.0054321,0.0008294013096
448.0016479,0.0009060473531
448.9976807,0.0008004064439
449.9935303,0.0009294459014
450.9891663,0.0007461564965
451.9846191,0.0008895238861
453.018219,0.001022092649
454.0132751,0.0008101835847
455.0082397,0.0007964126999
456.0029297,0.0006729609449
456.9974365,0.0006045991322
457.9918213,0.0009933443507
458.9860229,0.0008983432199
460.018158,0.0009143482312
461.0120544,0.001026192214
462.0056458,0.0007853392162
462.9989929,0.0007095701294
463.9921875,0.0006238855422
464.9852905,0.0008503576973
466.0162964,0.0007110739825
467.0089111,0.0009050616063
468.0014343,0.0006425506435
468.9936829,0.0007329321816
469.9857483,0.0006510280073
471.0157471,0.0004005370429
472.0074158,0.0007478420157
472.9989014,0.0006318181404
473.9902344,0.0007055512397
474.9813538,0.0006225116667
476.0103455,0.0007903702208
477.0010376,0.0003735398059
477.9915466,0.000688620552
478.9818115,0.0005345116369
480.0101013,0.000739959185
481.0000305,0.0008831947926
481.9897156,0.0005044220597
483.0173035,0.0004928895505
484.0066223,0.0006082023028
484.9957581,0.0007452489226
485.9846802,0.0007006249507
487.0114136,0.0006224338431
487.9999695,0.0005310127162
488.9882813,0.0005500626285
490.0144653,0.000389991852
491.0023499,0.0003996042651
491.9900513,0.0003923495824
493.015564,0.0003354822693
494.0028992,0.0004199698451
494.9899597,0.0002351341245
496.0148315,0.0005332675646
497.0015259,0.0004107715504
497.9880371,0.0004391703405
499.0122681,0.0002900196705
499.9983521,0.0005200756132
500.9841919,0.0004843634961
502.007782,0.000634410535
502.9932556,0.0005259847385
504.0163879,0.000580492313
505.0014343,0.0002155800757
505.9862366,0.0003222704108
507.0087585,0.0002323369263
507.9931641,0.0001309250802
509.0152283,0.0002727166284
509.9992065,0.0004408546374
510.9830017,0.0001765781926
512.0043945,0.0001829487737
512.9877319,8.231815627E-006
514.008728,0.0001117641077
514.9916382,0.0002582116285
516.0122681,0.000177873022
516.9946899,-3.261619668E-006
518.0147705,4.887545947E-005
518.9968262,0.0001525728148
520.0164795,0.0001337733993
520.9981079,0.000103012484
522.0172729,7.233141514E-005
522.9984741,-0.0001098979119
524.0172119,-6.947237853E-005
524.9979858,0.0001329447987
526.0162354,3.701851165E-005
526.996582,0.0001382789633
528.0144043,0.0001450115087
528.9942627,2.301323548E-005
530.0116577,0.0001356377616
530.9911499,-4.576397987E-005
532.0079956,0.0001549810549
532.9869995,0.0002620191372
534.003418,5.459693784E-005
534.9819946,0.0002332175209
535.9980469,5.021906873E-006
537.0137939,7.360004383E-005
537.9916992,0.0001234159427
539.006897,-6.730346627E-007
539.984436,5.04805721E-005
540.9992065,-6.657360791E-005
542.013855,9.50895701E-005
542.9906006,0.0002456237271
544.0046997,0.0001123596376
545.0185547,-2.712764763E-005
545.9946289,0.000113964983
547.0081177,0.0002256030275
547.9837036,7.11663597E-005
548.9966431,4.400616831E-007
550.0092773,2.127878724E-005
550.9842529,0.0003339797258
551.99646,0.0002038998646
553.0084839,0.0003452748351
553.9827271,0.0001768371585
554.9942017,0.000257097854
556.0054321,0.0001219141341
557.0164795,0.0004056413018
557.9898071,0.0001793232368
559.0003662,-0.000141159122
560.0105591,5.161968875E-005
560.9831543,-2.790417784E-005
561.992981,0.0002704890503
563.0025635,-0.0001472661825
564.0118408,-5.647951184E-005
564.9835205,-5.373594468E-005
565.9923096,0.0004585012503
567.0009155,0.000187843325
568.0092163,-9.240307554E-005
569.0172729,-0.0002734250447
569.987793,0.0001752833778
570.9953003,-0.0001464898669
572.0026855,-2.200251583E-005
573.0097656,-6.222540833E-005
574.0165405,-5.259710088E-005
574.9858398,-2.909485374E-005
575.9921875,5.20080248E-005
576.998291,0.0003135145525
578.0040283,5.120546484E-005
579.0095825,0.0001219659243
580.0149536,0.0001452704601
580.9827881,-5.6272449E-005
581.9876099,0.0001229239715
582.9921265,0.0005198164727
583.99646,-0.0002300653141
585.0004883,-0.0001921349176
586.0042114,0.0002295138547
587.0077515,0.0002633660333
588.0109863,0.0001791937539
589.0140381,0.0002112549846
590.0167847,0.0002773531596
590.9821777,-0.0002252012928
591.984375,-0.0001403828064
592.9863892,0.0001835444127
593.9880981,0.0001473938319
594.989502,0.0005332935252
595.9907837,-7.915207971E-005
596.9916382,-0.0003370080667
597.9923096,-0.0001485600515
598.9927368,-0.0002435186761
599.9929199,-0.0002171807282
600.9927979,-7.371698302E-005
601.9923706,0.000221925322
602.9918213,0.0006800388219
603.9908447,6.415016833E-005
604.9896851,-9.742385737E-005
605.9881592,0.0001513298484
606.9865112,0.0003686690761
607.9844971,-2.588589041E-006
608.9822998,-2.195074558E-005
610.0167236,0.0001045142271
611.013855,0.0005166546325
612.0108032,-8.515648369E-005
613.0075684,0.0003037745191
614.0039673,0.000243810704
615.000061,0.0003570106637
615.9959717,0.0002409875597
616.9915771,-0.0001897544571
617.9868164,-0.0002308414696
618.9818726,-2.645465429E-005
620.0135498,-0.0001662078867
621.0079956,-7.702980656E-005
622.0022583,0.0005633591791
622.9961548,-5.435713319E-005
623.9898682,-0.0002471923945
624.9832764,3.220333747E-005
626.0131836,0.0001163989073
627.0059814,0.0002090795169
627.9985352,0.0003798355465
628.9909058,-0.0001224233711
629.9828491,8.069405885E-005
631.0113525,-6.4503045E-005
632.0028076,0.0006596091553
632.9939575,0.0005688022939
633.9848633,-0.0002065209119
635.012146,0.00066839793
636.0024414,-0.0006323995185
636.9925537,9.190491255E-005
637.9823608,4.73997934E-005
639.0083618,0.0001990828314
639.9976196,0.0002115398675
640.9865112,3.958144953E-005
642.0117188,0.0002641689789
643.0001221,5.853211769E-005
643.9881592,0.000249146251
645.0125122,0.0007205898291
646,0.0007934044115
646.9871216,-0.0004224088334
648.0106812,-6.201834913E-005
648.9972534,6.332169141E-005
649.9835205,-0.0002568681375
651.0061646,-8.542285286E-006
651.9918823,9.682431119E-005
653.013855,0.0002745038946
653.9990234,0.0004834305728
654.9838867,0.000501778617
656.0049438,0.0004285205796
656.9891968,0.000397868338
658.0097046,0.0004898574552
658.9933472,0.0001125667768
660.0131226,0.0002455978538
660.9962769,-6.27948175E-005
662.0155029,0.0002171080996
662.9979858,0.0003562075435
664.0166016,0.0006840833812
664.9985352,0.0001538934594
666.0165405,0.000413414411
666.9978638,0.0004738421994
668.0151978,0.0003980237816
668.9959717,0.0009101199685
670.0126343,0.0004439641198
670.9928589,-3.799893966E-005
672.0089111,0.0001585028222
672.9885254,0.0004302307498
674.0039673,6.09657327E-005
674.9829102,0.0002856938518
675.9978027,0.001128306496
677.0123291,-6.222540833E-005
677.9903564,0.0004140103702
679.0042114,7.080389332E-005
680.0178833,0.0003734880011
680.9949341,-9.235131438E-005
682.0079346,-4.514278407E-005
682.984436,0.0005483260611
683.9967041,0.001478168182
685.008728,0.0004649277835
685.984314,-0.0003234023752
686.9957275,0.0001797375735
688.0067139,0.0001237266697
689.0174561,5.42086018E-005
689.9918213,0.0002851498721
691.0018921,0.0003437463602
692.0117188,0.0003050697269
692.9850464,-7.77027235E-005
693.9941406,0.000609939103
695.0029297,0.0002260951151
696.0114136,0.0007344101323
696.9835205,0.0002613975084
697.991333,0.0004681151768
698.9988403,0.0005551686627
