Baseline 100%T,,Baseline 0%T,,Quinine_Stock_Wavelength,Quinine_Stock_abs,
Wavelength (nm),%T,Wavelength (nm),%T,Wavelength (nm),Abs,
700.0059814,0.02325581387,700.0059814,93.11636353,700.0059814,2.391911507,
698.9988403,93.05748749,698.9988403,0,698.9988403,0.0005551686627,
697.991333,92.88774872,697.991333,-0.06329247355,697.991333,0.0004681151768,
696.9835205,92.69065094,696.9835205,-0.01994713955,696.9835205,0.0002613975084,
696.0114136,92.52521515,696.0114136,-0.02402562648,696.0114136,0.0007344101323,
695.0029297,92.31302643,695.0029297,-0.02310469374,695.0029297,0.0002260951151,
693.9941406,92.09182739,693.9941406,-0.04144586995,693.9941406,0.000609939103,
692.9850464,91.89709473,692.9850464,-0.06557582319,692.9850464,-7.77027235E-005,
692.0117188,91.98448944,692.0117188,-0.01262945123,692.0117188,0.0003050697269,
691.0018921,91.71439362,691.0018921,-0.0512804091,691.0018921,0.0003437463602,
689.9918213,91.61343384,689.9918213,0.03440618142,689.9918213,0.0002851498721,
689.0174561,91.48656464,689.0174561,-0.1115021408,689.0174561,5.42086018E-005,
688.0067139,91.31219482,688.0067139,-0.08180360496,688.0067139,0.0001237266697,
686.9957275,91.20759583,686.9957275,0.04823151231,686.9957275,0.0001797375735,
685.984314,91.23233795,685.984314,0.05792997032,685.984314,-0.0003234023752,
685.008728,91.24345398,685.008728,0.03857156634,685.008728,0.0004649277835,
683.9967041,91.30435181,683.9967041,0.05074210465,683.9967041,0.001478168182,
682.984436,91.00313568,682.984436,0.01902647689,682.984436,0.0005483260611,
682.0079346,90.96672821,682.0079346,-0.008848774247,682.0079346,-4.514278407E-005,
680.9949341,90.88150024,680.9949341,-0.01931354217,680.9949341,-9.235131438E-005,
680.0178833,90.87825775,680.0178833,0.05844535306,680.0178833,0.0003734880011,
679.0042114,90.80512238,679.0042114,0.02952306904,679.0042114,7.080389332E-005,
677.9903564,90.82489777,677.9903564,0.04200924188,677.9903564,0.0004140103702,
677.0123291,90.7749176,677.0123291,-0.09978795052,677.0123291,-6.222540833E-005,
675.9978027,90.79439545,675.9978027,-0.01889585331,675.9978027,0.001128306496,
674.9829102,90.65839386,674.9829102,0.003199181054,674.9829102,0.0002856938518,
674.0039673,90.79421997,674.0039673,0.05410049856,674.0039673,6.09657327E-005,
672.9885254,90.61435699,672.9885254,-0.06627532095,672.9885254,0.0004302307498,
672.0089111,90.66368103,672.0089111,0.05322479457,672.0089111,0.0001585028222,
670.9928589,90.67240143,670.9928589,-0.01528257411,670.9928589,-3.799893966E-005,
670.0126343,90.67279053,670.0126343,0.0362132974,670.0126343,0.0004439641198,
668.9959717,90.69843292,668.9959717,0.01490401756,668.9959717,0.0009101199685,
668.0151978,90.66772461,668.0151978,-0.06272541732,668.0151978,0.0003980237816,
666.9978638,90.71343231,666.9978638,0.0308071468,666.9978638,0.0004738421994,
666.0165405,90.75798035,666.0165405,0.1313819587,666.0165405,0.000413414411,
664.9985352,90.91127014,664.9985352,-0.04838514328,664.9985352,0.0001538934594,
664.0166016,90.96289063,664.0166016,0.03544423357,664.0166016,0.0006840833812,
662.9979858,91.06951141,662.9979858,0.01933968812,662.9979858,0.0003562075435,
662.0155029,90.99649811,662.0155029,0.0617698431,662.0155029,0.0002171080996,
660.9962769,91.03131866,660.9962769,-0.004920291249,660.9962769,-6.27948175E-005,
660.0131226,91.13385773,660.0131226,-0.01359372865,660.0131226,0.0002455978538,
658.9933472,91.13639832,658.9933472,0.03509496152,658.9933472,0.0001125667768,
658.0097046,91.11305237,658.0097046,0.04644454643,658.0097046,0.0004898574552,
656.9891968,91.17916107,656.9891968,-0.02280848473,656.9891968,0.000397868338,
656.0049438,91.18694305,656.0049438,0.01288859081,656.0049438,0.0004285205796,
654.9838867,91.14925385,654.9838867,0.02640891448,654.9838867,0.000501778617,
653.9990234,91.18501282,653.9990234,0.002689618152,653.9990234,0.0004834305728,
653.013855,91.24375916,653.013855,0.0565276593,653.013855,0.0002745038946,
651.9918823,91.26809692,651.9918823,0,651.9918823,9.682431119E-005,
651.0061646,91.22907257,651.0061646,-0.01611603424,651.0061646,-8.542285286E-006,
649.9835205,91.12545013,649.9835205,-0.1051156297,649.9835205,-0.0002568681375,
648.9972534,91.21891022,648.9972534,-0.01367540099,648.9972534,6.332169141E-005,
648.0106812,91.26641083,648.0106812,-0.1312140226,648.0106812,-6.201834913E-005,
646.9871216,91.14740753,646.9871216,-0.03813882545,646.9871216,-0.0004224088334,
646,91.32315063,646,0.06557735801,646,0.0007934044115,
645.0125122,91.27079773,645.0125122,0.02175568417,645.0125122,0.0007205898291,
643.9881592,91.27449799,643.9881592,-0.02220310271,643.9881592,0.000249146251,
643.0001221,91.20747375,643.0001221,-0.08756320179,643.0001221,5.853211769E-005,
642.0117188,91.29689026,642.0117188,0.008187772706,642.0117188,0.0002641689789,
640.9865112,91.29404449,640.9865112,0.05936250091,640.9865112,3.958144953E-005,
639.9976196,91.30973816,639.9976196,-0.03588179499,639.9976196,0.0002115398675,
639.0083618,91.29763031,639.0083618,-0.06375274062,639.0083618,0.0001990828314,
637.9823608,91.31716156,637.9823608,0.04826132208,637.9823608,4.73997934E-005,
636.9925537,91.38523865,636.9925537,-0.01445817947,636.9925537,9.190491255E-005,
636.0024414,91.2743988,636.0024414,0.07135382295,636.0024414,-0.0006323995185,
635.012146,91.33423615,635.012146,0.05022601783,635.012146,0.00066839793,
633.9848633,91.33898163,633.9848633,-0.03463053331,633.9848633,-0.0002065209119,
632.9939575,91.45547485,632.9939575,-0.05868676677,632.9939575,0.0005688022939,
632.0028076,91.42594147,632.0028076,-0.02822334133,632.0028076,0.0006596091553,
631.0113525,91.35610199,631.0113525,-0.02390743047,631.0113525,-6.4503045E-005,
629.9828491,91.34030151,629.9828491,0.00434499234,629.9828491,8.069405885E-005,
628.9909058,91.32394409,628.9909058,0.02131468989,628.9909058,-0.0001224233711,
627.9985352,91.40833282,627.9985352,0.05324595422,627.9985352,0.0003798355465,
627.0059814,91.38738251,627.0059814,-0.03002439626,627.0059814,0.0002090795169,
626.0131836,91.35639191,626.0131836,0.01107664965,626.0131836,0.0001163989073,
624.9832764,91.35825348,624.9832764,-0.02447780594,624.9832764,3.220333747E-005,
623.9898682,91.26836395,623.9898682,0.03250371292,623.9898682,-0.0002471923945,
622.9961548,91.31871796,622.9961548,-0.03154218569,622.9961548,-5.435713319E-005,
622.0022583,91.50564575,622.0022583,0.002389714587,622.0022583,0.0005633591791,
621.0079956,91.38342285,621.0079956,0.08764646202,621.0079956,-7.702980656E-005,
620.0135498,91.37861633,620.0135498,0.06576783955,620.0135498,-0.0001662078867,
618.9818726,91.33978271,618.9818726,0.01766238362,618.9818726,-2.645465429E-005,
617.9868164,91.30586243,617.9868164,0.06033702567,617.9868164,-0.0002308414696,
616.9915771,91.34920502,616.9915771,0.05990073457,616.9915771,-0.0001897544571,
615.9959717,91.39897919,615.9959717,0.03846646845,615.9959717,0.0002409875597,
615.000061,91.41015625,615.000061,0.03090371378,615.000061,0.0003570106637,
614.0039673,91.40866089,614.0039673,0.06830018014,614.0039673,0.000243810704,
613.0075684,91.48010254,613.0075684,0.05321326479,613.0075684,0.0003037745191,
612.0108032,91.43297577,612.0108032,-0.05430144817,612.0108032,-8.515648369E-005,
611.013855,91.45102692,611.013855,-0.02516899258,611.013855,0.0005166546325,
610.0167236,91.41168213,610.0167236,0.006469351705,610.0167236,0.0001045142271,
608.9822998,91.48873138,608.9822998,0.03759833425,608.9822998,-2.195074558E-005,
607.9844971,91.46621704,607.9844971,-0.01979218237,607.9844971,-2.588589041E-006,
606.9865112,91.51094818,606.9865112,-0.01002238318,606.9865112,0.0003686690761,
605.9881592,91.48365021,605.9881592,-0.003341464326,605.9881592,0.0001513298484,
604.9896851,91.46668243,604.9896851,-0.03633010387,604.9896851,-9.742385737E-005,
603.9908447,91.50489807,603.9908447,-0.0109499041,603.9908447,6.415016833E-005,
602.9918213,91.53683472,602.9918213,0.03172954917,602.9918213,0.0006800388219,
601.9923706,91.51261139,601.9923706,-0.0232937336,601.9923706,0.000221925322,
600.9927979,91.49698639,600.9927979,0,600.9927979,-7.371698302E-005,
599.9929199,91.56578827,599.9929199,0.02936534211,599.9929199,-0.0002171807282,
598.9927368,91.58712006,598.9927368,0.01754878648,598.9927368,-0.0002435186761,
597.9923096,91.57181549,597.9923096,0.04748789221,597.9923096,-0.0001485600515,
596.9916382,91.61067963,596.9916382,0.008002560586,596.9916382,-0.0003370080667,
595.9907837,91.61412811,595.9907837,0.02508081682,595.9907837,-7.915207971E-005,
594.989502,91.71510315,594.989502,0.0273855906,594.989502,0.0005332935252,
593.9880981,91.66133118,593.9880981,-0.00655737659,593.9880981,0.0001473938319,
592.9863892,91.7640686,592.9863892,0.05417704955,592.9863892,0.0001835444127,
591.984375,91.69348145,591.984375,0,591.984375,-0.0001403828064,
590.9821777,91.74829102,590.9821777,0.006829667836,590.9821777,-0.0002252012928,
590.0167847,91.8265686,590.0167847,-0.01027960517,590.0167847,0.0002773531596,
589.0140381,91.80017853,589.0140381,0.05038460344,589.0140381,0.0002112549846,
588.0109863,91.87543488,588.0109863,0.04888438806,588.0109863,0.0001791937539,
587.0077515,91.84247589,587.0077515,0.0352621749,587.0077515,0.0002633660333,
586.0042114,91.87862396,586.0042114,0.04003348202,586.0042114,0.0002295138547,
585.0004883,91.83718109,585.0004883,-0.02480774187,585.0004883,-0.0001921349176,
583.99646,91.88375854,583.99646,0.01454228163,583.99646,-0.0002300653141,
582.9921265,91.97969818,582.9921265,0.03024803288,582.9921265,0.0005198164727,
581.9876099,91.98767853,581.9876099,-0.01090988424,581.9876099,0.0001229239715,
580.9827881,91.9744339,580.9827881,0.003467045724,580.9827881,-5.6272449E-005,
580.0149536,92.01000977,580.0149536,-0.04435951635,580.0149536,0.0001452704601,
579.0095825,92.09500885,579.0095825,-0.02343566902,579.0095825,0.0001219659243,
578.0040283,92.05178833,578.0040283,0.006387531292,578.0040283,5.120546484E-005,
576.998291,92.1397171,576.998291,0.02940484509,576.998291,0.0003135145525,
575.9921875,92.12911224,575.9921875,0.01349491253,575.9921875,5.20080248E-005,
574.9858398,92.16512299,574.9858398,0.002531517297,574.9858398,-2.909485374E-005,
574.0165405,92.16827393,574.0165405,0.01677369885,574.0165405,-5.259710088E-005,
573.0097656,92.20719147,573.0097656,0.004900279455,573.0097656,-6.222540833E-005,
572.0026855,92.22106934,572.0026855,0.03136686981,572.0026855,-2.200251583E-005,
570.9953003,92.30697632,570.9953003,0.01671402343,570.9953003,-0.0001464898669,
569.987793,92.32718658,569.987793,-0.01616640575,569.987793,0.0001752833778,
569.0172729,92.31580353,569.0172729,-0.02229219489,569.0172729,-0.0002734250447,
568.0092163,92.34336853,568.0092163,0.03540305048,568.0092163,-9.240307554E-005,
567.0009155,92.3839798,567.0009155,0,567.0009155,0.000187843325,
565.9923096,92.50274658,565.9923096,0.03937976807,565.9923096,0.0004585012503,
564.9835205,92.4287262,564.9835205,0.002475431422,564.9835205,-5.373594468E-005,
564.0118408,92.46746826,564.0118408,-0.02375046164,564.0118408,-5.647951184E-005,
563.0025635,92.50118256,563.0025635,-0.0169219058,563.0025635,-0.0001472661825,
561.992981,92.56168365,561.992981,0.04117485508,561.992981,0.0002704890503,
560.9831543,92.61838531,560.9831543,0.005559725687,560.9831543,-2.790417784E-005,
560.0105591,92.63668823,560.0105591,-0.03170493245,560.0105591,5.161968875E-005,
559.0003662,92.70423889,559.0003662,0.007999147289,559.0003662,-0.000141159122,
557.9898071,92.78407288,557.9898071,0.01934877597,557.9898071,0.0001793232368,
557.0164795,92.82228088,557.0164795,-0.01036403701,557.0164795,0.0004056413018,
556.0054321,92.8890152,556.0054321,-0.01277400274,556.0054321,0.0001219141341,
554.9942017,92.90759277,554.9942017,0,554.9942017,0.000257097854,
553.9827271,92.88871765,553.9827271,0.0333301574,553.9827271,0.0001768371585,
553.0084839,93.0226593,553.0084839,0.01306506433,553.0084839,0.0003452748351,
551.99646,93.00165558,551.99646,-0.01244813297,551.99646,0.0002038998646,
550.9842529,93.04105377,550.9842529,-0.01333096251,550.9842529,0.0003339797258,
550.0092773,93.06736755,550.0092773,0.008866034448,550.0092773,2.127878724E-005,
548.9966431,93.14144135,548.9966431,0.01656863652,548.9966431,4.400616831E-007,
547.9837036,93.17031097,547.9837036,0.02525799163,547.9837036,7.11663597E-005,
547.0081177,93.23270416,547.0081177,0.01872250065,547.0081177,0.0002256030275,
545.9946289,93.25091553,545.9946289,0.02079743333,545.9946289,0.000113964983,
545.0185547,93.24725342,545.0185547,0.003083659569,545.0185547,-2.712764763E-005,
544.0046997,93.34300995,544.0046997,-0.006043026224,544.0046997,0.0001123596376,
542.9906006,93.3560257,542.9906006,0.01443070825,542.9906006,0.0002456237271,
542.013855,93.36747742,542.013855,0.01623903774,542.013855,9.50895701E-005,
540.9992065,93.36341858,540.9992065,0.01384274662,540.9992065,-6.657360791E-005,
539.984436,93.33020782,539.984436,0.01236374117,539.984436,5.04805721E-005,
539.006897,93.32778168,539.006897,0,539.006897,-6.730346627E-007,
537.9916992,93.33953094,537.9916992,0.008305878378,537.9916992,0.0001234159427,
537.0137939,93.34745789,537.0137939,0.002507837024,537.0137939,7.360004383E-005,
535.9980469,93.32576752,535.9980469,0,535.9980469,5.021906873E-006,
534.9819946,93.27276611,534.9819946,0.009361981414,534.9819946,0.0002332175209,
534.003418,93.23065948,534.003418,0.01426262129,534.003418,5.459693784E-005,
532.9869995,93.25455475,532.9869995,0.008106026798,532.9869995,0.0002620191372,
532.0079956,93.1509552,532.0079956,0,532.0079956,0.0001549810549,
530.9911499,93.05734253,530.9911499,0.009378663264,530.9911499,-4.576397987E-005,
530.0116577,93.00123596,530.0116577,-0.01319783647,530.0116577,0.0001356377616,
528.9942627,92.91790009,528.9942627,-0.007470491342,528.9942627,2.301323548E-005,
528.0144043,92.86385345,528.0144043,-0.01148072723,528.0144043,0.0001450115087,
526.996582,92.69808197,526.996582,0.006472910754,526.996582,0.0001382789633,
526.0162354,92.58039856,526.0162354,0,526.0162354,3.701851165E-005,
524.9979858,92.47688293,524.9979858,0.004741359036,524.9979858,0.0001329447987,
524.0172119,92.33066559,524.0172119,0.01093613356,524.0172119,-6.947237853E-005,
522.9984741,92.19538116,522.9984741,0,522.9984741,-0.0001098979119,
522.0172729,92.06784058,522.0172729,0.003385927994,522.0172729,7.233141514E-005,
520.9981079,91.95503998,520.9981079,-0.003343698801,520.9981079,0.000103012484,
520.0164795,91.81199646,520.0164795,0.0203514006,520.0164795,0.0001337733993,
518.9968262,91.7140274,518.9968262,0.01248517353,518.9968262,0.0001525728148,
518.0147705,91.56121826,518.0147705,0.005767844617,518.0147705,4.887545947E-005,
516.9946899,91.40345001,516.9946899,0.003209139686,516.9946899,-3.261619668E-006,
516.0122681,91.31423187,516.0122681,-0.006850253791,516.0122681,0.000177873022,
514.9916382,91.21153259,514.9916382,-0.008398068137,514.9916382,0.0002582116285,
514.008728,91.08361816,514.008728,-0.02958689258,514.008728,0.0001117641077,
512.9877319,90.92356873,512.9877319,0,512.9877319,8.231815627E-006,
512.0043945,90.88458252,512.0043945,0.02393203229,512.0043945,0.0001829487737,
510.9830017,90.77948761,510.9830017,0.01860742085,510.9830017,0.0001765781926,
509.9992065,90.71904755,509.9992065,0.02249887399,509.9992065,0.0004408546374,
509.0152283,90.57920837,509.0152283,0.01538935024,509.0152283,0.0002727166284,
507.9931641,90.51649475,507.9931641,0.008059316315,507.9931641,0.0001309250802,
507.0087585,90.44642639,507.0087585,-0.03318400308,507.0087585,0.0002323369263,
505.9862366,90.3944931,505.9862366,0.01303044893,505.9862366,0.0003222704108,
505.0014343,90.33232117,505.0014343,0.01756311767,505.0014343,0.0002155800757,
504.0163879,90.32067108,504.0163879,-0.003980099224,504.0163879,0.000580492313,
502.9932556,90.24274445,502.9932556,0.02479953691,502.9932556,0.0005259847385,
502.007782,90.17961121,502.007782,-0.004524067976,502.007782,0.000634410535,
500.9841919,90.18771362,500.9841919,-0.005328218453,500.9841919,0.0004843634961,
499.9983521,90.15412903,499.9983521,-0.007935563102,499.9983521,0.0005200756132,
499.0122681,90.07341003,499.0122681,0.01206854917,499.0122681,0.0002900196705,
497.9880371,90.13122559,497.9880371,0.003732039593,497.9880371,0.0004391703405,
497.0015259,90.08270264,497.0015259,-0.006813381333,497.0015259,0.0004107715504,
496.0148315,90.08999634,496.0148315,0.01600768231,496.0148315,0.0005332675646,
494.9899597,90.01480103,494.9899597,-0.003403560258,494.9899597,0.0002351341245,
494.0028992,90.06377411,494.0028992,-0.003502259031,494.0028992,0.0004199698451,
493.015564,90.07657623,493.015564,-0.01267909259,493.015564,0.0003354822693,
491.9900513,90.09568024,491.9900513,0.00545196794,491.9900513,0.0003923495824,
491.0023499,90.12098694,491.0023499,-0.007591573521,491.0023499,0.0003996042651,
490.0144653,90.08672333,490.0144653,-0.008500148542,490.0144653,0.000389991852,
488.9882813,90.16431427,488.9882813,0.009450009093,488.9882813,0.0005500626285,
487.9999695,90.21382904,487.9999695,0,487.9999695,0.0005310127162,
487.0114136,90.25404358,487.0114136,0.003709749319,487.0114136,0.0006224338431,
485.9846802,90.27849579,485.9846802,0.008114906959,485.9846802,0.0007006249507,
484.9957581,90.31768799,484.9957581,0.01251355559,484.9957581,0.0007452489226,
484.0066223,90.39656067,484.0066223,0.006033546291,484.0066223,0.0006082023028,
483.0173035,90.40337372,483.0173035,-0.002404019469,483.0173035,0.0004928895505,
481.9897156,90.35173035,481.9897156,0.002967887558,481.9897156,0.0005044220597,
481.0000305,90.4523468,481.0000305,0.004078636412,481.0000305,0.0008831947926,
480.0101013,90.49117279,480.0101013,0.005109861959,480.0101013,0.000739959185,
478.9818115,90.53302765,478.9818115,0.01154834405,478.9818115,0.0005345116369,
477.9915466,90.58359528,477.9915466,0.008415146731,477.9915466,0.000688620552,
477.0010376,90.5656662,477.0010376,-0.01142400224,477.0010376,0.0003735398059,
476.0103455,90.6000824,476.0103455,0.01425394882,476.0103455,0.0007903702208,
474.9813538,90.58162689,474.9813538,-0.003012411064,474.9813538,0.0006225116667,
473.9902344,90.56730652,473.9902344,0.01225715503,473.9902344,0.0007055512397,
472.9989014,90.55621338,472.9989014,0.005972288549,472.9989014,0.0006318181404,
472.0074158,90.48656464,472.0074158,0.006275888067,472.0074158,0.0007478420157,
471.0157471,90.43170166,471.0157471,0,471.0157471,0.0004005370429,
469.9857483,90.39994812,469.9857483,0.01732351631,469.9857483,0.0006510280073,
468.9936829,90.29895782,468.9936829,0.002941435901,468.9936829,0.0007329321816,
468.0014343,90.16605377,468.0014343,-0.005666043609,468.0014343,0.0006425506435,
467.0089111,90.09976196,467.0089111,-0.02263787948,467.0089111,0.0009050616063,
466.0162964,89.97808838,466.0162964,0.01037559658,466.0162964,0.0007110739825,
464.9852905,89.83226013,464.9852905,-0.01690712385,464.9852905,0.0008503576973,
463.9921875,89.71255493,463.9921875,-0.01000500284,463.9921875,0.0006238855422,
462.9989929,89.60877991,462.9989929,0.01783894002,462.9989929,0.0007095701294,
462.0056458,89.45506287,462.0056458,0.005148535129,462.0056458,0.0007853392162,
461.0120544,89.36975861,461.0120544,-0.004653327167,461.0120544,0.001026192214,
460.018158,89.24983978,460.018158,-0.00427844096,460.018158,0.0009143482312,
458.9860229,89.16735077,458.9860229,-0.007039526943,458.9860229,0.0008983432199,
457.9918213,89.05164337,457.9918213,-0.01779715717,457.9918213,0.0009933443507,
456.9974365,88.93734741,456.9974365,0,456.9974365,0.0006045991322,
456.0029297,88.85679626,456.0029297,0.002502940828,456.0029297,0.0006729609449,
455.0082397,88.79314423,455.0082397,0.01325486507,455.0082397,0.0007964126999,
454.0132751,88.75733948,454.0132751,0.009939122945,454.0132751,0.0008101835847,
453.018219,88.70149231,453.018219,0,453.018219,0.001022092649,
451.9846191,88.64926147,451.9846191,0.008997661062,451.9846191,0.0008895238861,
450.9891663,88.55233002,450.9891663,0.004426639527,450.9891663,0.0007461564965,
449.9935303,88.48666382,449.9935303,0.009248554707,449.9935303,0.0009294459014,
448.9976807,88.47758484,448.9976807,0.01559494715,448.9976807,0.0008004064439,
448.0016479,88.46137238,448.0016479,0.01457301155,448.0016479,0.0009060473531,
447.0054321,88.4001236,447.0054321,0,447.0054321,0.0008294013096,
446.0090637,88.40585327,446.0090637,0.008158936165,446.0090637,0.0009959129384,
445.0124512,88.33422852,445.0124512,0.01989099756,445.0124512,0.000789177313,
444.0157471,88.33113098,444.0157471,0.004402958788,444.0157471,0.0009710319573,
443.0187988,88.32263184,443.0187988,-0.01474926248,443.0187988,0.001038413495,
441.9833069,88.33126068,441.9833069,0,441.9833069,0.001185589237,
440.9859619,88.28138733,440.9859619,0.004011070821,440.9859619,0.001044407603,
439.9885254,88.30589294,439.9885254,0.007682261523,439.9885254,0.001153430087,
438.9908447,88.23055267,438.9908447,-0.008570816368,438.9908447,0.0007195785875,
437.992981,88.25798035,437.992981,-0.00895114895,437.992981,0.0008560119313,
436.9950256,88.29506683,436.9950256,-0.002177463379,436.9950256,0.001056162291,
435.9967957,88.29647064,435.9967957,0.00250463374,435.9967957,0.001014438341,
434.9984436,88.3471756,434.9984436,0.01888618805,434.9984436,0.001090753707,
433.9998474,88.37220001,433.9998474,0.01526484545,433.9998474,0.001077648601,
433.0011597,88.35848236,433.0011597,0.002283626469,433.0011597,0.0008523029392,
432.0022888,88.34120178,432.0022888,-0.00452642329,432.0022888,0.0008879675297,
431.0032043,88.40000153,431.0032043,-0.01447701827,431.0032043,0.001017214614,
430.0039368,88.42957306,430.0039368,-0.002378969919,430.0039368,0.001092077233,
429.0045166,88.41798401,429.0045166,-0.00458505284,429.0045166,0.00108883332,
428.0048828,88.42186737,428.0048828,0.01762036793,428.0048828,0.001049130224,
427.0050964,88.45515442,427.0050964,0,427.0050964,0.001295166439,
426.005127,88.44819641,426.005127,0.0077083176,426.005127,0.0009951605462,
425.0050354,88.51361084,425.0050354,0,425.0050354,0.001323363511,
424.0047302,88.49398041,424.0047302,0.01368223038,424.0047302,0.001200203085,
423.0042725,88.52282715,423.0042725,0.01933799684,423.0042725,0.001268554828,
422.0036316,88.50294495,422.0036316,0.006594131235,422.0036316,0.001309628249,
421.0028076,88.55479431,421.0028076,-0.01047485974,421.0028076,0.001462791697,
420.0018005,88.53126526,420.0018005,0,420.0018005,0.001158932457,
419.0006104,88.57388306,419.0006104,-0.003601397388,419.0006104,0.001363818767,
417.9993286,88.58995056,417.9993286,0,417.9993286,0.001416925341,
416.9978027,88.60256958,416.9978027,0.01145606581,416.9978027,0.00148351898,
415.9961243,88.62223816,415.9961243,0.002472371329,415.9961243,0.001440143562,
414.9942932,88.66719055,414.9942932,0.007821258157,414.9942932,0.001533341012,
413.9923096,88.68151093,413.9923096,-0.005403215066,413.9923096,0.001716131344,
412.9901123,88.74534607,412.9901123,0.01069518737,412.9901123,0.001828104025,
411.9877319,88.73893738,411.9877319,0.01990842074,411.9877319,0.001908306498,
410.9852295,88.77098846,410.9852295,-0.01195528731,410.9852295,0.002170439111,
409.9825745,88.86738586,409.9825745,0.01058033109,409.9825745,0.002416461008,
409.01828,88.86447906,409.01828,0.01556622144,409.01828,0.002477610717,
408.0152283,88.91534424,408.0152283,-0.01172436029,408.0152283,0.002918252489,
407.0120544,88.9145813,407.0120544,-0.01833180524,407.0120544,0.003045889549,
406.0087585,88.96652222,406.0087585,0.005707925651,406.0087585,0.003249007976,
405.005249,89.00321198,405.005249,0.01959412172,405.005249,0.003692652564,
404.0015259,89.06322479,404.0015259,-0.01045095921,404.0015259,0.003974830266,
402.9976807,89.1138382,402.9976807,0.00525527494,402.9976807,0.004627427086,
401.9936829,89.1187973,401.9936829,0.002867219038,401.9936829,0.005030449945,
400.989502,89.17728424,400.989502,-0.008701705374,400.989502,0.005547673441,
399.985199,89.22458649,399.985199,-0.006009073928,399.985199,0.006614802405,
399.0193481,89.28907013,399.0193481,-0.01859427243,399.0193481,0.007358045317,
398.014679,89.26117706,398.014679,-0.0030672024,398.014679,0.007844574749,
397.0098877,89.32861328,397.0098877,0.00585823087,397.0098877,0.009263092652,
396.0049133,89.35967255,396.0049133,0,396.0049133,0.01025706995,
394.9997559,89.38478851,394.9997559,-0.01670657657,394.9997559,0.01165757701,
393.9944763,89.44517517,393.9944763,0.0132893892,393.9944763,0.01329262555,
392.9889832,89.43095398,392.9889832,0.01581063494,392.9889832,0.01480505895,
391.9833679,89.42933655,391.9833679,0.00955885835,391.9833679,0.01678894646,
391.0162964,89.47275543,391.0162964,0,391.0162964,0.01916520484,
390.0103455,89.46600342,390.0103455,0.008924388327,390.0103455,0.02068659104,
389.0042725,89.45930481,389.0042725,0,389.0042725,0.02365834638,
387.9980164,89.46642303,387.9980164,0,387.9980164,0.02701658197,
386.9916077,89.47982788,386.9916077,-0.008206587285,386.9916077,0.03071329556,
385.9850464,89.43672943,385.9850464,0,385.9850464,0.03366462141,
385.0170288,89.41576385,385.0170288,0.002892932622,385.0170288,0.03761449084,
384.0101929,89.43035126,384.0101929,0.006282985676,384.0101929,0.04223902151,
383.0031433,89.36387634,383.0031433,0.01520958729,383.0031433,0.04759231582,
381.9959717,89.33429718,381.9959717,-0.01276405714,381.9959717,0.05285700411,
380.9886169,89.29456329,380.9886169,0.03563411161,380.9886169,0.05912732333,
379.9811401,89.2491684,379.9811401,0.003502995241,379.9811401,0.064939484,
379.0122375,89.23906708,379.0122375,0.01030325983,379.0122375,0.07232103497,
378.004425,89.15939331,378.004425,0.006170554087,378.004425,0.0808762908,
376.99646,89.11491394,376.99646,-0.01755838096,376.99646,0.08870542794,
375.9883728,88.99121094,375.9883728,0.01296411455,375.9883728,0.09605757892,
375.0188904,88.95349121,375.0188904,0.01266865153,375.0188904,0.1053826362,
374.0104675,88.85417938,374.0104675,0.01043441985,374.0104675,0.1146325395,
373.0019226,88.73896027,373.0019226,0.01152870711,373.0019226,0.125195846,
371.9931946,88.67744446,371.9931946,0.01555270422,371.9931946,0.1362943947,
370.9843445,88.60454559,370.9843445,0.0244140625,370.9843445,0.1489279717,
370.0140991,88.5030899,370.0140991,0.003750515636,370.0140991,0.157494545,
369.0049438,88.36205292,369.0049438,-0.004008498043,369.0049438,0.1688295454,
367.995636,88.35262299,367.995636,0.02468729578,367.995636,0.1824296266,
366.9862061,88.18870544,366.9862061,0.0122159794,366.9862061,0.1961787343,
366.0154419,88.09598541,366.0154419,0.00738361571,366.0154419,0.208042413,
365.0056458,87.99832916,365.0056458,0.003705625189,365.0056458,0.2199927568,
363.9957886,87.98574066,363.9957886,-0.02038666792,363.9957886,0.2331432402,
362.9856873,87.82904816,362.9856873,0,362.9856873,0.2470924407,
362.0143433,87.81560516,362.0143433,-0.005275096279,362.0143433,0.2612149119,
361.0040283,87.68592834,361.0040283,-0.01447597053,361.0040283,0.2721625865,
359.9935303,87.63129425,359.9935303,0.01013582014,359.9935303,0.2817614973,
358.9828796,87.59497833,358.9828796,-0.01591053791,358.9828796,0.2949771583,
358.0109558,87.51661682,358.0109558,-0.01135653909,358.0109558,0.3065130413,
357.000061,87.48547363,357.000061,-0.01281996537,357.000061,0.3187174499,
355.9889832,87.42087555,355.9889832,-0.02430783585,355.9889832,0.3263498247,
355.0166626,87.38609314,355.0166626,-0.002808594145,355.0166626,0.3352465034,
354.0053406,87.37619781,354.0053406,0.02999939956,354.0053406,0.3435464203,
352.9938049,87.3186264,352.9938049,0,352.9938049,0.3505063057,
351.9822083,87.28507996,351.9822083,-0.01085619163,351.9822083,0.3569065928,
351.0093079,87.29161835,351.0093079,-0.03150846809,351.0093079,0.3627509773,
349.9973755,87.28237915,349.9973755,-0.01760687307,349.9973755,0.3663406968,
348.985321,87.28176117,348.985321,0.01941823028,348.985321,0.3705355823,
348.0120544,87.21644592,348.0120544,0.02333722264,348.0120544,0.3724626899,
346.9997253,87.20445251,346.9997253,0.01936408319,346.9997253,0.3746656775,
345.9872131,87.24952698,345.9872131,0,345.9872131,0.3756251335,
345.0135498,87.20357513,345.0135498,0.01404050738,345.0135498,0.375353545,
344.0007935,87.24266052,344.0007935,0,344.0007935,0.3747029006,
342.987854,87.20923615,342.987854,0.003066826379,342.987854,0.3731933534,
342.0137939,87.16783142,342.0137939,-0.006952652708,342.0137939,0.3708217442,
341.0006409,87.23670959,341.0006409,0.01438176446,341.0006409,0.3690538108,
339.9873352,87.21434021,339.9873352,-0.007482509594,339.9873352,0.3647219837,
339.0128479,87.25614166,339.0128479,-0.01443887036,339.0128479,0.3609116375,
337.9992676,87.25988007,337.9992676,0.01822223887,337.9992676,0.3561413586,
336.9855347,87.23961639,336.9855347,0.01004217658,336.9855347,0.3507803977,
336.0106812,87.27310944,336.0106812,0.003375641303,336.0106812,0.3444084823,
334.9967041,87.31513977,334.9967041,0.003390290309,334.9967041,0.3387187719,
333.9825439,87.32170105,333.9825439,-0.01640958339,333.9825439,0.3330039382,
333.0072937,87.34654999,333.0072937,0,333.0072937,0.3256333768,
331.9928894,87.32933807,331.9928894,0.01459087245,331.9928894,0.3183495998,
331.017395,87.35240173,331.017395,-0.009945300408,331.017395,0.3117585778,
330.0027466,87.39707184,330.0027466,-0.009706852958,330.0027466,0.3062973619,
328.987915,87.37228394,328.987915,-0.006309347227,328.987915,0.3004064262,
328.0120239,87.41693115,328.0120239,-0.01208532229,328.0120239,0.2949438691,
326.9969788,87.44067383,326.9969788,-0.006138170138,326.9969788,0.2914310098,
325.981781,87.42701721,325.981781,-0.002695563016,325.981781,0.2875470221,
325.0055237,87.42170715,325.0055237,-0.004955647048,325.0055237,0.2862661779,
323.9900818,87.47284698,323.9900818,0.01783087291,323.9900818,0.2862091362,
323.0135193,87.45191956,323.0135193,-0.002305900911,323.0135193,0.2853211164,
321.9978333,87.44881439,321.9978333,0.01601452008,321.9978333,0.2873427868,
320.9819946,87.46743774,320.9819946,-0.01450116001,320.9819946,0.2900653183,
320.0050964,87.41781616,320.0050964,-0.01806249656,320.0050964,0.2926154435,
318.9889832,87.39704132,318.9889832,0.02243437991,318.9889832,0.2948164046,
318.0118408,87.35736847,318.0118408,-0.004808270372,318.0118408,0.2966521978,
316.9954834,87.32980347,316.9954834,0,316.9954834,0.299018234,
316.0180969,87.30007172,316.0180969,0,316.0180969,0.2997443974,
315.0014954,87.27661133,315.0014954,0.01891878992,315.0014954,0.299956888,
313.9847412,87.21738434,313.9847412,0.007068136707,313.9847412,0.2981699109,
313.0069885,87.15557098,313.0069885,0,313.0069885,0.2954573035,
311.9900208,87.14957428,311.9900208,-0.008585533127,311.9900208,0.2922527194,
311.0120544,87.08972931,311.0120544,-0.01200672332,311.0120544,0.2872146964,
309.9947815,87.07743835,309.9947815,0.006945167668,309.9947815,0.2822917104,
309.0165405,86.98477173,309.0165405,0.003363153199,309.0165405,0.2757132649,
307.9990845,86.93956757,307.9990845,-0.009921619669,307.9990845,0.2685697675,
306.9814453,86.87622833,306.9814453,0,306.9814453,0.2610326707,
306.0028687,86.86253357,306.0028687,-0.01440403238,306.0028687,0.2526379228,
304.9849854,86.8404007,304.9849854,-0.007037050091,304.9849854,0.2453862131,
304.0061951,86.80690002,304.0061951,0.01654464938,304.0061951,0.2382056862,
302.9880981,86.76737213,302.9880981,-0.006980072241,302.9880981,0.2299128026,
302.0090332,86.73469543,302.0090332,-0.003339901799,302.0090332,0.2214888483,
300.9906616,86.66396332,300.9906616,0.01038232911,300.9906616,0.2126580477,
300.0113831,86.64878845,300.0113831,-0.005349881947,300.0113831,0.2049974352,

Baseline 100%T,
Baseline 100%T
Collection Time: 1/29/2025 2:44:36 PM
Operator Name  :
Scan Version 5.1.0.1016
Parameter List :
Instrument  Cary 60
Instrument Version  2.00
Start (nm)  700.0
Stop (nm)  300.0
X Mode  Nanometers
Y Mode  Abs
UV-Vis Scan Rate (nm/min)  4800.00
UV-Vis Data Interval (nm)  1.00
UV-Vis Ave. Time (sec)  0.0125
Beam Mode  Dual Beam
Baseline Correction  On
Baseline Type  Zero/baseline correction
Baseline File Name
Baseline Std Ref File Name
Cycle Mode  Off
Method Log     :
Method Name    :
Date/Time stamp: 1/29/2025 2:33:12 PM
Method Modifications:
X Start nm Changed: 1/29/2025 2:38:29 PM, Old:  800.0, New:  700.0
X Stop nm Changed: 1/29/2025 2:38:29 PM, Old:  200.0, New:  300.0
Baseline Correction Changed: 1/29/2025 2:38:29 PM, Old:0, New:2
Common Interval nm Changed: 1/29/2025 2:43:05 PM, Old:     5.00, New:     1.00
End Method Modifications
<Current Wavelength> , 319.0

Baseline 0%T,
Baseline 0%T
Collection Time: 1/29/2025 2:44:57 PM
Operator Name  :
Scan Version 5.1.0.1016
Parameter List :
Instrument  Cary 60
Instrument Version  2.00
Start (nm)  700.0
Stop (nm)  300.0
X Mode  Nanometers
Y Mode  Abs
UV-Vis Scan Rate (nm/min)  4800.00
UV-Vis Data Interval (nm)  1.00
UV-Vis Ave. Time (sec)  0.0125
Beam Mode  Dual Beam
Baseline Correction  On
Baseline Type  Zero/baseline correction
Baseline File Name
Baseline Std Ref File Name
Cycle Mode  Off
Method Log     :
Method Name    :
Date/Time stamp: 1/29/2025 2:33:12 PM
Method Modifications:
X Start nm Changed: 1/29/2025 2:38:29 PM, Old:  800.0, New:  700.0
X Stop nm Changed: 1/29/2025 2:38:29 PM, Old:  200.0, New:  300.0
Baseline Correction Changed: 1/29/2025 2:38:29 PM, Old:0, New:2
Common Interval nm Changed: 1/29/2025 2:43:05 PM, Old:     5.00, New:     1.00
End Method Modifications
<Current Wavelength> , 325.0

sample4,
sample4
Collection Time: 1/29/2025 2:58:41 PM
Operator Name  :
Scan Version 5.1.0.1016
Parameter List :
Instrument  Cary 60
Instrument Version  2.00
Start (nm)  700.0
Stop (nm)  300.0
X Mode  Nanometers
Y Mode  Abs
UV-Vis Scan Rate (nm/min)  4800.00
UV-Vis Data Interval (nm)  1.00
UV-Vis Ave. Time (sec)  0.0125
Beam Mode  Dual Beam
Baseline Correction  On
Baseline Type  Zero/baseline correction
Baseline File Name
Baseline Std Ref File Name
Cycle Mode  Off
Method Log     :
Method Name    :
Date/Time stamp: 1/29/2025 2:33:12 PM
Method Modifications:
X Start nm Changed: 1/29/2025 2:38:29 PM, Old:  800.0, New:  700.0
X Stop nm Changed: 1/29/2025 2:38:29 PM, Old:  200.0, New:  300.0
Baseline Correction Changed: 1/29/2025 2:38:29 PM, Old:0, New:2
Common Interval nm Changed: 1/29/2025 2:43:05 PM, Old:     5.00, New:     1.00
End Method Modifications
<Current Wavelength> , 300.0

