Wavelength (nm),Average Intensity
290.0,3.545806408
291.0,2.3481139445934263
292.0,1.5829188825
293.0,0.48536393474402195
294.0,-0.029638975855
295.0,-0.4396920139464277
296.0,-0.63317123055
297.0,-0.5734510983602469
298.0,-0.6860822141
299.0,-0.5724238115358291
300.0,-0.7013075948
301.0,-0.5358470931753827
302.0,-0.52727636695
303.0,-0.6891982150532814
304.0,-0.62581291795
305.0,-0.5393532940296761
306.0,-0.3337895274
307.0,-0.4668684391046228
308.0,-0.39376333355000004
309.0,-0.18641765261398874
310.0,0.095314621935
311.0,0.6866188562285493
312.0,2.5634727479999997
313.0,6.18188516864428
314.0,13.05305958
315.0,23.910886671460172
316.0,39.129779815000006
317.0,61.20092749782451
318.0,87.66887283
319.0,113.86477286731784
320.0,142.08351894999998
321.0,169.80680266030774
322.0,196.187027
323.0,215.53855469518516
324.0,233.45288084999999
325.0,246.60262305269356
326.0,253.74210355
327.0,262.2554729447696
328.0,264.36958315000004
329.0,267.331992658795
330.0,262.02957155
331.0,266.7671222657756
332.0,261.4299011
333.0,264.045339518037
334.0,254.46266175
335.0,251.45385582876932
336.0,246.22828675
337.0,239.2726650920916
338.0,233.7401733
339.0,228.87998982274704
340.0,221.1786957
341.0,213.94177236312174
342.0,205.9356613
343.0,203.48416106257167
344.0,197.43341064999998
345.0,186.46383506859962
346.0,178.82061764999997
347.0,173.1440945085223
348.0,166.3184433
349.0,162.7060708423541
350.0,152.69794465
351.0,150.0171791075593
352.0,143.7229614
353.0,135.18196957685996
354.0,131.460495
355.0,124.80531260077703
356.0,116.60951610000001
357.0,114.8193265844705
358.0,107.69892885
359.0,101.81032070685922
360.0,96.98025894
361.0,91.16619010154213
362.0,89.61618045353502
363.0,82.20608531212795
364.0,79.35899455535319
365.0,76.457580565
366.0,70.69341959425805
367.0,66.32094458064391
368.0,61.512843818153726
369.0,60.25722421937091
370.0,55.89144707
371.0,52.10142858601391
372.0,49.083301545
373.0,49.03508695337992
374.0,45.54961777
375.0,43.888772297263486
376.0,40.384206774999996
377.0,37.99628318326373
378.0,36.318260190000004
379.0,33.88556947377775
380.0,31.16467571
381.0,30.8611771690599
382.0,31.278592525412627
383.0,27.484095366374504
384.0,25.070949215698214
385.0,24.941462515
386.0,24.03703533044786
387.0,20.684646815279834
388.0,19.30938831470697
389.0,19.811021956512086
390.0,18.58172989
391.0,17.606997605463235
392.0,14.904852865
393.0,16.255716634807943
394.0,14.653167725
395.0,13.451042267538153
396.0,13.30603266
397.0,12.48077220616944
398.0,11.75370693
399.0,11.124684576601094
400.0,10.541953085
401.0,9.383541615011737
402.0,9.407199369192693
403.0,7.887818042541912
404.0,7.184825599923148
405.0,7.1647520065000005
406.0,7.297492075911482
407.0,6.512881961847888
408.0,6.567956054800339
409.0,6.177753111793694
410.0,5.456273556
411.0,5.846797999640259
412.0,4.826742739983109
413.0,4.214318217271901
414.0,4.480666211870625
415.0,3.8901588915
416.0,3.8505788438659287
417.0,3.60632991550959
418.0,3.109833296280911
419.0,3.8007607763842914
420.0,3.0850794315
421.0,2.662206461787606
422.0,1.968678999846336
423.0,2.42463782975339
424.0,2.7081949035014787
425.0,2.606505394
426.0,1.959640642136395
427.0,1.8318190065784594
428.0,1.6080349501519255
429.0,1.7274543385906638
430.0,1.924747765
431.0,1.1735849949144646
432.0,1.2834311284397653
433.0,0.9909019393865652
434.0,1.3530715565065299
435.0,1.1064530611
436.0,0.6031868512047955
437.0,0.8277794645117292
438.0,0.9198474016183278
439.0,0.7553090021864877
440.0,0.5758907199000001
441.0,0.4339928822067791
442.0,0.4148351610749784
443.0,0.7607578268829639
444.0,0.6584321450782938
445.0,0.41929286715
446.0,0.4803715156771302
447.0,0.0746649020800786
448.0,0.4440416127810291
449.0,-0.03597002708605268
450.0,-0.0335834622
451.0,-0.050359797451106164
452.0,0.3260434617937831
453.0,0.24497801834614324
454.0,0.05790468281885673
455.0,-0.19839276148592194
456.0,0.047960976162064635
457.0,-0.18901937198314145
458.0,0.06797977193710285
459.0,-0.027381579912065034
460.0,-0.138824373465
461.0,0.16436751264399482
462.0,-0.24198421533278505
463.0,-0.2515680197189796
464.0,-0.19635276794573442
465.0,-0.2251428962
466.0,-0.5006413894513122
467.0,-0.21527190573972463
468.0,-0.2396804261722491
469.0,-0.24936434835361665
470.0,-0.39174076915
471.0,-0.3634578513180784
472.0,-0.5057093989444038
473.0,-0.4469154989519236
474.0,-0.2624430441980764
475.0,-0.3733274901681045
476.0,-0.37992764727017697
477.0,-0.5580159698090543
478.0,-0.6227776521796192
479.0,-0.6206139446295089
480.0,-0.55900013445
481.0,-0.44125505318754904
482.0,-0.48671513291173985
483.0,-0.6505355988562267
484.0,-0.5073990445759144
485.0,-0.66992640495
486.0,-0.6171736163587793
487.0,-0.577716676858929
488.0,-0.43239190734567245
489.0,-0.469480004980673
490.0,-0.50555148725
491.0,-0.7737133719845961
492.0,-0.42273374245925055
493.0,-0.5222296970998881
494.0,-0.5513981622501118
495.0,-0.6964422601552513
496.0,-0.5812771758658809
497.0,-0.5102369931212358
498.0,-0.5359585836062661
499.0,-0.7496439774747827
500.0,-0.6156342626
501.0,-0.5734475860487986
502.0,-0.70225365686601
503.0,-0.5988043404891077
504.0,-0.8852199160108923
505.0,-0.8410758370526953
506.0,-0.6842931570904334
507.0,-0.7152423264049957
508.0,-0.6273222381332084
509.0,-0.7054155559595592
510.0,-0.5583143234500001
511.0,-0.5842166484750735
512.0,-0.6767486464180988
513.0,-0.6095841138404443
514.0,-0.7581085606093206
515.0,-0.8017741441999999
516.0,-0.7437357860117491
517.0,-0.7466949942042178
518.0,-0.75030072989577
519.0,-0.7907237865452369
520.0,-0.72641211745
521.0,-0.7888409358961583
522.0,-0.7461232215204088
523.0,-0.7169918174383152
524.0,-0.7634369378616848
525.0,-0.7586299854450782
526.0,-0.783637988155451
527.0,-0.8138068051258882
528.0,-0.8225686178386579
529.0,-0.5936465765259042
530.0,-0.7584910691
531.0,-0.8197971472574215
532.0,-0.7434656880876354
533.0,-0.7150932444212179
534.0,-0.8650042222787822
535.0,-0.7685148151298584
536.0,-0.8520545152262111
537.0,-0.8518027236829893
538.0,-0.7205301271662752
539.0,-0.8515828264703017
540.0,-0.6511616111
541.0,-0.832268731846223
542.0,-0.8679470544746052
543.0,-0.836625993883295
544.0,-0.6865901223712167
545.0,-0.7767897248
546.0,-0.665325998420258
547.0,-0.9534864389106548
548.0,-0.8119926202322498
549.0,-0.7238822027003302
550.0,-0.8542712927
551.0,-0.8573837643733357
552.0,-0.787085915816076
553.0,-0.7616845775761194
554.0,-1.0078666943450663
555.0,-0.74982839825
556.0,-0.827520106496755
557.0,-0.8091536664790084
558.0,-0.5893470454378796
559.0,-0.8033636689686263
560.0,-0.77189394835
561.0,-0.8301143893317662
562.0,-0.6306209938639589
563.0,-0.7373911027035025
564.0,-0.7602296613087154
565.0,-0.5940567255
566.0,-0.5221949120248647
567.0,-0.44082347038685077
568.0,-0.002056306172022182
569.0,0.24739833559464683
570.0,0.76769632105
571.0,0.8095854892472751
572.0,1.752355167006122
573.0,1.7781779792876482
574.0,1.8011165916281104
575.0,2.1927540299999997
576.0,2.1022665010851105
577.0,2.477166508674781
578.0,1.6850765131382457
579.0,1.3347656407643096
580.0,1.1431360245
581.0,1.051788189607708
582.0,0.8074144041549973
583.0,0.5080902159319064
584.0,0.09551324484786473
585.0,-0.34073541332681034
586.0,-0.48240211759515506
587.0,-0.6948973164623142
588.0,-0.9006876499771421
589.0,-0.7254122379488658
590.0,-0.68039146065
591.0,-0.780454584982428
592.0,-0.7619051187218857
593.0,-0.7414919878196657
594.0,-0.9142751471048295
595.0,-0.90541785955
596.0,-0.7210769564594199
597.0,-0.9326809357234196
598.0,-0.8815609857936162
599.0,-0.8036454586668066
600.0,-0.7167521417
601.0,-0.9394549166136615
602.0,-0.9038279281218011
603.0,-0.9349480442795972
604.0,-0.7852866097354707
605.0,-0.9588227598909763
606.0,-0.8112126204205029
607.0,-0.7590572282742505
608.0,-0.803538855383637
609.0,-0.8466410771527435
610.0,-0.868008554
611.0,-0.7420191897383902
612.0,-0.7139002958648116
613.0,-0.8315448373074416
614.0,-0.7781812984014035
615.0,-0.8233033783025941
616.0,-0.8363923734070557
617.0,-0.7867529601953677
618.0,-0.7222522203482307
619.0,-0.8278861648687219
620.0,-0.8716008365000001
621.0,-0.6501403047804144
622.0,-0.695014948460883
623.0,-0.5701520209480515
624.0,-0.48549902113387966
625.0,-0.6561783038403965
626.0,-0.42691257948721695
627.0,-0.02609078819398577
628.0,0.21754832914298597
629.0,0.37582816487775794
630.0,1.04317659155
631.0,1.9617997746616576
632.0,3.5313722347095893
633.0,4.776750142948226
634.0,6.990589587714742
635.0,8.572169709053693
636.0,11.23301907273079
637.0,13.452465883226301
638.0,16.51146769032791
639.0,18.98517326809533
640.0,21.48656082
641.0,24.968961715
642.0,26.10379696
643.0,27.597335819999998
644.0,28.848685265
645.0,31.493766785
646.0,34.721214294999996
647.0,35.242448804999995
648.0,36.71792984
649.0,36.818414685
650.0,37.406406399999995
651.0,37.798596911418784
652.0,35.876628007484626
653.0,35.963194895022795
654.0,38.17926310506628
655.0,37.90056670100503
656.0,39.02101027722064
657.0,38.24406008315074
658.0,37.26126859194103
659.0,35.82380651856412
660.0,36.49004936
661.0,36.351133345
662.0,35.934574125
663.0,36.58218956
664.0,34.007995605000005
665.0,33.32292557
666.0,32.6237278
667.0,32.68027496
668.0,30.721302985
669.0,31.82490921
670.0,31.280920985
671.0,31.17739773
672.0,29.695225715
673.0,27.520328525
674.0,28.956851004999997
675.0,27.83285141
676.0,27.264793394999998
677.0,27.41889763
678.0,24.26379204
679.0,24.277583125
680.0,24.219332695
681.0,24.380046130639396
682.0,22.34802441066725
683.0,22.677677443627303
684.0,21.870527279087725
685.0,19.648997319350414
686.0,20.65095008401748
687.0,19.204952225660147
688.0,18.077231496614246
689.0,18.48629573528428
690.0,18.569633484999997
691.0,17.673845295
692.0,15.455934525
693.0,16.70783043
694.0,15.18847132
695.0,14.47214508
696.0,15.12980795
697.0,14.20091343
698.0,14.101912500000001
699.0,12.843213555
700.0,12.660610195
