Wavelength (nm),Average Intensity
290.0,381.2510071
291.0,279.7368298602733
292.0,184.4225616
293.0,106.19989003504797
294.0,49.07462311
295.0,22.0563459449747
296.0,8.888905525
297.0,4.180799064417847
298.0,3.023045063
299.0,2.883137539004601
300.0,2.632922649
301.0,1.1551720420648692
302.0,2.226594448
303.0,1.8039311026190799
304.0,1.427928925
305.0,1.3337938905941589
306.0,1.25342226
307.0,1.9742164237407613
308.0,1.074342728
309.0,0.7837374183913608
310.0,2.681799412
311.0,4.124949257800136
312.0,7.713658333
313.0,16.42815624063121
314.0,25.24548721
315.0,40.813228280551776
316.0,54.91202545
317.0,69.33977519525894
318.0,81.66709137
319.0,87.45217934089523
320.0,83.32344818
321.0,78.24526513395902
322.0,64.85202026
323.0,52.5676808167082
324.0,40.33295441
325.0,25.779935500689565
326.0,15.68160057
327.0,10.21659738076935
328.0,6.372232437
329.0,4.439730682105406
330.0,3.123617172
331.0,2.4530826391982057
332.0,3.179641724
333.0,1.9665227929422242
334.0,1.74727869
335.0,2.032207002171332
336.0,1.910660744
337.0,1.154497982306682
338.0,1.310547352
339.0,1.7875505995479435
340.0,2.684920311
341.0,1.2796783149874313
342.0,1.498685837
343.0,0.9564561670715729
344.0,2.518878937
345.0,1.67200944367971
346.0,1.36381197
347.0,1.1343149310545617
348.0,1.001009941
349.0,1.1767290281501555
350.0,0.8272285461
351.0,0.836701943524485
352.0,0.5469727516
353.0,1.2026715112252933
354.0,1.044346333
355.0,0.3978985968023041
356.0,1.281423092
357.0,0.5230704601067311
358.0,0.8714895248
359.0,0.3650364356481718
360.0,0.2034180164
361.0,1.0653253986431506
362.0,1.1516246112998652
363.0,0.8134384083646098
364.0,0.4116622963806929
365.0,0.223000288
366.0,0.06997322576891199
367.0,-0.4972378278657092
368.0,0.36313564612835797
369.0,-0.40565839120992936
370.0,-0.7226560116
371.0,0.08323762903218179
372.0,-0.01741099358
373.0,-0.06765680926742633
374.0,-0.3214094639
375.0,-0.7436031054760956
376.0,-0.4663369656
377.0,-0.5156063858179749
378.0,-0.6626172066
379.0,-0.8145001691741824
380.0,-0.7379584312
381.0,-1.0731471474763468
382.0,-0.8055107506113285
383.0,-0.8396567373723538
384.0,-0.8901358256987761
385.0,-1.10053277
386.0,-1.28392385692322
387.0,-1.3001841279904207
388.0,-1.168619860157854
389.0,-1.4341799575903895
390.0,-1.292665124
391.0,-1.0698590225836797
392.0,-1.493425012
393.0,-1.8740874224340272
394.0,-1.34086144
395.0,-1.8616494037830575
396.0,-0.9648525715
397.0,-1.9250545659163123
398.0,-1.85385263
399.0,-1.7115886772213582
400.0,-2.006156921
401.0,-1.6916849146482797
402.0,-1.8853609945470973
403.0,-2.068505989913019
404.0,-2.124711942901569
405.0,-2.12815094
406.0,-1.9376510275473635
407.0,-1.96510805768128
408.0,-2.022364557707028
409.0,-1.8859927979750315
410.0,-2.17847681
411.0,-2.052233437373493
412.0,-2.1274344717553504
413.0,-2.426973063688325
414.0,-2.039681459246098
415.0,-2.425716162
416.0,-1.7277800666729748
417.0,-1.9049608490471381
418.0,-1.8179053495192365
419.0,-2.1421183134886643
420.0,-2.13298583
421.0,-1.9808179769784424
422.0,-2.1334300628295857
423.0,-2.2586462001400522
424.0,-2.4287730240575027
425.0,-2.541738987
426.0,-2.0616287839202836
427.0,-2.151024177997972
428.0,-2.0607501611758425
429.0,-2.0762770916689495
430.0,-2.251460075
431.0,-2.264074696014237
432.0,-2.0366424279160897
433.0,-2.1050270940767795
434.0,-2.519295323412035
435.0,-2.362679005
436.0,-2.4732604912222356
437.0,-2.7573364094663595
438.0,-2.486771716122675
439.0,-2.4979796065710214
440.0,-2.77901125
441.0,-2.0864963773247993
442.0,-2.2413852480928464
443.0,-2.5230891383373373
444.0,-2.438883063303203
445.0,-2.576643944
446.0,-2.216499043671915
447.0,-2.8268381769848396
448.0,-2.6020254743051443
449.0,-2.7214498729680305
450.0,-2.677854776
451.0,-2.664194420339445
452.0,-2.6939139347113996
453.0,-2.691658422409576
454.0,-2.076172425590424
455.0,-2.564516235314839
456.0,-2.7123374287126865
457.0,-2.390377807417236
458.0,-2.3884664238074795
459.0,-2.694776771642598
460.0,-2.494651794
461.0,-2.269149368334125
462.0,-2.318018442398947
463.0,-2.2629436807594696
464.0,-2.7750829541608746
465.0,-2.731359959
466.0,-2.720141214731145
467.0,-2.8526742239679925
468.0,-2.807717476476643
469.0,-2.7176374953936544
470.0,-2.67594862
471.0,-2.6174370520656995
472.0,-2.603472418946258
473.0,-2.555346008707205
474.0,-2.836142782292795
475.0,-2.412039513630596
476.0,-2.530628714688021
477.0,-2.744881341060541
478.0,-2.8751536859867963
479.0,-2.550892348025469
480.0,-2.756492615
481.0,-2.958403918384088
482.0,-2.965906870494282
483.0,-2.685705675605234
484.0,-2.864484385161821
485.0,-2.897690296
486.0,-2.5860708847862313
487.0,-2.7614051797070025
488.0,-2.570393762308259
489.0,-2.6538226508099316
490.0,-2.753641367
491.0,-2.392400970407087
492.0,-2.628775153620279
493.0,-2.346697207836348
494.0,-2.387339953163652
495.0,-2.61146605542583
496.0,-2.617642583862337
497.0,-2.4669541184015658
498.0,-2.659778010395537
499.0,-2.632627476160138
500.0,-2.781150579
501.0,-3.0118257763661753
502.0,-2.7510712644350717
503.0,-2.499978294816364
504.0,-2.5767192931836362
505.0,-2.6339337711574977
506.0,-2.789139886939462
507.0,-2.973258716341456
508.0,-2.792704306469285
509.0,-2.793105767324499
510.0,-2.892258167
511.0,-2.886038647965971
512.0,-2.892954996783079
513.0,-2.9197029449390643
514.0,-2.767949646451676
515.0,-2.637608528
516.0,-2.8188139363279796
517.0,-2.7620668413800558
518.0,-2.7786442201265245
519.0,-2.4850746103480654
520.0,-2.766438723
521.0,-2.595640521499587
522.0,-2.7370670095589262
523.0,-2.8161170800950455
524.0,-2.5099539439049545
525.0,-2.656375226422637
526.0,-2.6280111873463396
527.0,-2.9017331637604804
528.0,-2.534292983952473
529.0,-2.780847017346122
530.0,-2.743567228
531.0,-2.88731099661818
532.0,-2.772134510284803
533.0,-2.785550200546405
534.0,-2.8550213934535953
535.0,-2.591578085648285
536.0,-2.766285928632494
537.0,-2.8742646238565426
538.0,-2.365775748616992
539.0,-2.790621573294646
540.0,-2.811374903
541.0,-2.336688613179065
542.0,-2.6698589381318043
543.0,-2.6839235170803803
544.0,-2.6863613841906284
545.0,-2.463961601
546.0,-2.505220316152015
547.0,-2.6242571191268906
548.0,-2.5479289235263685
549.0,-2.6062563335437208
550.0,-2.544378519
551.0,-2.625558726829361
552.0,-2.69547380758296
553.0,-2.440131936574696
554.0,-2.6030741281566834
555.0,-2.18737793
556.0,-2.2414432179675345
557.0,-2.201698956101393
558.0,-2.169219022598219
559.0,-2.6955430292932925
560.0,-2.432529449
561.0,-2.1939424612022154
562.0,-1.9778036787045965
563.0,-1.296961840369533
564.0,-0.7840944310359615
565.0,2.626995087
566.0,9.000194555245526
567.0,17.56366154044882
568.0,36.4414655167406
569.0,64.86260050264148
570.0,108.4532394
571.0,161.73747543666457
572.0,227.40898295494694
573.0,278.3992212203874
574.0,321.55968942014806
575.0,342.1927185
576.0,326.79842054785286
577.0,324.8153243437753
578.0,308.65871989074867
579.0,295.7100321898259
580.0,266.7083435
581.0,235.79432167565835
582.0,195.00057033364172
583.0,143.75219514033802
584.0,93.07886572254122
585.0,58.80813148830555
586.0,30.358499472972074
587.0,14.51496040203831
588.0,5.512289095592551
589.0,2.1718314315822096
590.0,1.472031116
591.0,0.20306664522271234
592.0,0.45145803699098863
593.0,-0.8744789181726285
594.0,-0.18152702686793182
595.0,-0.8460144997
596.0,-1.0004943976823442
597.0,-1.0897572341605681
598.0,-0.6882073031549641
599.0,-1.3107714151302379
600.0,-1.150418997
601.0,-1.3866441930327433
602.0,-1.837574028220739
603.0,-1.4043130475815058
604.0,-0.9520860288446983
605.0,-1.4601476352793494
606.0,-1.4788475138899193
607.0,-1.637191004007019
608.0,-1.4673182416920272
609.0,-1.268200226008825
610.0,-2.001615047
611.0,-1.126797075926878
612.0,-1.4868016989346184
613.0,-2.153369117792053
614.0,-1.2475592200513965
615.0,-1.8958189121522884
616.0,-2.106110794413354
617.0,-1.8504028906741659
618.0,-1.6852149464673953
619.0,-2.0330906796888497
620.0,-1.94737184
621.0,-2.352088999180026
622.0,-1.9844467332887434
623.0,-1.627274508628272
624.0,-1.404246904872244
625.0,-0.7784009203302555
626.0,-0.7968592351644967
627.0,-0.018625121627739452
628.0,1.4877320366734963
629.0,2.9335696387890207
630.0,4.619486809
631.0,6.76432013734981
632.0,9.811525008428633
633.0,11.482700870894176
634.0,12.170069248883433
635.0,14.86771997972863
636.0,17.948582075172048
637.0,18.65367587199269
638.0,18.598701779292874
639.0,19.420922370469327
640.0,18.54825974
641.0,16.69444847
642.0,17.63844109
643.0,15.67210197
644.0,13.17427444
645.0,12.29706287
646.0,9.977170944
647.0,8.498641014
648.0,5.828896523
649.0,4.848884583
650.0,3.230792046
651.0,1.1206390781773834
652.0,-0.1257305971091721
653.0,-0.6154682011332269
654.0,-1.3361356982533057
655.0,-1.2616407916986092
656.0,-1.7223561743436993
657.0,-1.9993870264417088
658.0,-1.6549940403455967
659.0,-2.300560965932375
660.0,-2.128924608
661.0,-2.012265205
662.0,-1.942509413
663.0,-2.308997393
664.0,-2.361495018
665.0,-2.412454605
666.0,-2.450242758
667.0,-2.454193354
668.0,-2.514532566
669.0,-2.544707775
670.0,-2.023649693
671.0,-2.323705435
672.0,-2.097763538
673.0,-2.623436213
674.0,-2.563557863
675.0,-2.520737171
676.0,-2.525355339
677.0,-2.424784422
678.0,-2.708517075
679.0,-2.351985216
680.0,-2.525946379
681.0,-2.3317219784294214
682.0,-2.4776809916531883
683.0,-2.6197290572565333
684.0,-2.5627435012920943
685.0,-2.6192005644428815
686.0,-2.6873936952449275
687.0,-2.66331309253073
688.0,-2.6438533535460462
689.0,-2.580765355648602
690.0,-2.613136768
691.0,-2.590655327
692.0,-2.752670527
693.0,-2.659301758
694.0,-2.557284355
695.0,-2.801542759
696.0,-2.932150126
697.0,-2.673536062
698.0,-2.55802536
699.0,-2.872656822
700.0,-2.763678551
